1652983903.1645787
64
-76.75195
-91.06158
-105.5243
-118.1746
-126.3051
-127.0942
-118.478
-99.96472
-72.98413
-40.58929
-6.635925
25.19397
52.17926
72.78412
86.53354
93.62488
94.63333
90.39655
82.0722
71.22409
59.7269
49.46564
41.85571
37.50336
36.11243
36.65717
37.87134
38.71039
38.63538
37.64716
36.06506
34.16669
31.94061
29.02094
24.79926
18.7688
10.85779
1.548157
-8.245117
-17.57684
-25.92291
-33.41187
-40.73529
-48.90497
-58.83704
-70.99316
-85.13269
-100.2236
-114.4097
-125.2021
-129.8992
-126.218
-112.9889
-90.64294
-61.29877
-28.28479
4.680481
34.30627
58.29333
75.51001
85.79959
89.66174
88.03973
82.15247
73.39902
63.30963
53.4068
44.95404
38.65576
34.57977
32.16595
30.63165
29.34631
28.11835
27.17145
26.88879
27.32043
27.96313
27.81366
25.68079
20.77856
13.06726
3.315796
-7.245605
-17.4198
-26.55768
-34.7735
-42.80682
-51.72705
-62.4848
-75.51593
-90.3938
-105.627
-118.7597
-126.7657
-126.7987
-117.0901
-97.63654
-70.35889
-38.60443
-6.2547
23.28796
47.74261
66.07877
78.1792
84.38138
85.17099
81.17712
73.30359
62.90167
51.68958
41.42981
33.46191
28.36511
25.88251
25.15857
25.2298
25.42328
25.48981
25.45526
25.24738
24.53003
22.71893
19.34796
14.38184
8.267761
1.74884
-4.589294
-10.65967
-16.94409
-24.25378
-33.39557
-44.85315
-58.59381
-74.02063
-89.85461
-104.1257
-114.3015
-117.6908
-112.1193
-96.72345
-72.40393
-41.76892
-8.513367
23.58856
51.50204
73.38654
88.56393
97.16992
99.72223
96.93842
89.71402
79.19885
66.86682
54.36694
43.21448
34.51514
28.72681
25.62836
24.5871
24.7915
25.50684
26.1358
26.1702
25.06866
22.28375
17.34241
10.06903
0.741394
-9.882751
-20.83966
-31.24304
-40.60229
-49.00623
-57.0368
-65.62799
-75.72101
-87.78802
-101.4581
-115.1769
-126.3275
-131.7846
-128.8501
-116.15
-94.22888
-65.43939
-33.22327
-1.217224
27.60626
51.28116
68.81226
79.88373
84.65933
83.66138
77.81741
68.42215
57.07114
45.48453
35.24628
27.56146
23.02753
21.55713
22.45282
24.61548
26.85818
28.21506
28.08932
26.26132
22.78772
17.87122
11.80685
4.922729
-2.419891
-9.97467
-17.74576
-26.10623
-35.7363
-47.27057
-60.83575
-75.59619
-89.59653
-100.0466
-104.0255
-99.40097
-85.57947
-63.76663
-36.59106
-7.347321
20.81726
45.4982
65.16537
79.05356
86.88882
88.73029
85.03156
76.69666
65.13409
52.11429
39.46475
28.71747
20.85422
16.12631
14.13315
13.99649
14.66953
15.15521
14.77054
13.21472
10.4838
6.772583
2.248505
-3.02536
-9.140442
-16.33655
-24.95816
-35.38602
-47.93665
-62.64963
-78.97415
-95.47369
-109.7959
-119.0048
-120.3318
-112.0494
-94.14658
-68.47708
-38.24625
-7.126709
21.64029
45.79477
64.14233
76.31454
82.43396
82.92188
78.50113
70.22516
59.53448
48.06754
37.4187
28.84979
23.07855
20.12042
19.41245
19.95123
20.63477
20.52609
19.08521
16.17108
11.89609
6.471405
0.009765625
-7.473572
-16.01819
-25.67938
-36.54294
-48.74643
-62.42999
-77.44745
-92.9299
-107.004
-116.8887
-119.4984
-112.4987
-95.21429
-69.091
-37.38368
-4.215866
26.48933
51.89439
70.54218
82.14809
87.11105
86.15356
80.1391
70.17346
57.6783
44.35007
31.92378
21.79553
14.72076
10.69217
9.117035
9.124008
9.878891
10.76131
11.30768
11.15286
9.950836
7.378357
3.2285
-2.476883
-9.555466
-17.7928
-27.13617
-37.83322
-50.34991
-65.08025
-81.89385
-99.68387
-116.1563
-128.1452
-132.3147
-126.153
-108.814
-81.51826
-47.3034
-10.23067
25.62571
56.99019
81.7803
99.09788
108.9519
111.9704
109.2215
102.1536
92.49869
82.12074
72.58083
64.88625
59.28947
55.39492
52.52228
50.07262
47.76382
45.59726
43.64188
41.72241
39.32256
35.69751
30.15839
22.36655
12.48885
1.153738
-10.75378
-22.41451
-33.35109
-43.61333
-53.83751
-65.10628
-78.49675
-94.53444
-112.5577
-130.3987
-144.6284
-151.3246
-147.2743
-131.0396
-103.5962
-68.05017
-28.81942
9.633667
43.81448
71.67535
92.5151
106.4724
114.0433
115.7947
112.4684
105.2314
95.70916
85.84075
77.40298
71.57899
68.59811
67.83907
68.26299
68.85004
69.01154
68.59346
67.73697
66.50792
64.73083
61.92046
57.45605
50.86847
41.98943
31.12091
18.90842
6.22226
-6.13591
-17.58966
-28.00398
-37.70831
-47.42014
-58.1161
-70.67746
-85.517
-102.0992
-118.6785
-132.3911
-139.7812
-137.784
-124.7061
-100.9445
-68.97952
-32.78958
3.286179
35.60799
61.89452
81.33063
94.13326
101.0328
102.8126
100.1878
93.96167
85.18121
75.24384
65.7597
58.17223
53.42442
51.68491
52.32744
54.26537
56.31152
57.52679
57.48842
56.17032
53.80008
50.6109
46.69405
41.97903
36.33078
29.64793
21.91718
13.22325
3.726852
-6.318573
-16.61127
-26.84453
-36.72881
-46.1749
-55.33083
-64.66465
-74.86304
-86.54903
-99.88882
-114.1351
-127.3988
-136.8372
-139.2799
-132.177
-114.5276
-87.35773
-53.58586
-17.18994
17.80225
48.23332
72.21942
89.08775
98.99651
102.5582
100.6399
94.36795
85.1748
74.72089
64.70818
56.52954
50.97745
48.19377
47.73114
48.80588
50.5497
52.20143
53.18781
53.14668
51.93042
49.56348
46.14537
41.7802
36.47975
30.14282
22.6647
14.09538
4.705627
-4.958435
-14.26328
-22.65744
-29.90737
-36.15597
-41.91811
-47.95581
-55.12241
-64.10916
-75.17342
-87.85294
-100.7379
-111.5467
-117.463
-115.889
-105.2626
-85.64179
-58.86199
-28.03566
3.229462
31.76189
55.38422
73.03241
84.50822
90.09995
90.34367
86.00466
78.16856
68.26538
57.96631
48.84183
42.03392
38.02758
36.57227
36.91272
38.09206
39.30003
40.0472
40.25319
40.05259
39.55477
38.69553
37.144
34.38601
29.98902
23.8001
16.05129
7.308586
-1.689381
-10.32312
-18.24578
-25.50857
-32.51089
-39.88414
-48.27827
-58.11095
-69.28877
-81.0223
-91.7655
-99.36402
-101.6252
-96.84724
-84.42276
-65.15496
-41.12057
-15.13573
9.928753
31.73082
48.80518
60.46255
66.60452
67.53661
63.86932
56.55796
46.97771
36.73262
27.38896
20.09479
15.2943
12.79803
12.01737
12.31781
13.28892
14.75998
16.61013
18.57781
20.09576
20.39001
18.77247
14.88679
8.904266
1.491432
-6.436073
-13.98633
-20.55893
-26.02784
-30.75626
-35.50143
-41.20953
-48.76175
-58.60553
-70.46417
-83.11909
-94.46169
-101.8443
-102.7805
-95.67125
-80.38676
-58.38295
-32.33871
-5.418869
19.47635
40.28597
55.93996
66.15822
71.21413
71.61859
68.12862
61.73502
53.66219
45.19014
37.37982
30.83492
25.67628
21.69693
18.66789
16.61409
15.72984
16.21219
17.89104
20.12434
21.83121
21.89738
19.57675
14.78186
8.104279
0.5348663
-6.893997
-13.51564
-19.18846
-24.34816
-29.79543
-36.4043
-44.76041
-54.78186
-65.53734
-75.28477
-81.82069
-83.00902
-77.42929
-64.80786
-46.20035
-23.7417
-0.06591797
22.23518
41.09035
55.1996
63.97784
67.44731
66.05801
60.59496
52.07417
41.70483
30.79198
20.54001
11.9371
5.578644
1.625488
-0.1447449
-0.2522888
0.6273499
1.805664
2.643768
2.592194
1.254608
-1.612823
-5.978699
-11.55518
-17.86407
-24.37534
-30.72372
-36.90479
-43.37296
-50.84805
-60.00037
-70.89532
-82.64819
-93.32138
-100.3235
-101.1142
-94.07101
-79.11591
-57.78561
-32.82077
-7.371613
15.83401
34.94739
49.07446
57.98886
61.84814
60.97995
55.89279
47.39111
36.62277
25.03317
14.11386
5.165222
-1.005035
-4.196411
-4.816895
-3.741058
-2.046021
-0.7601318
-0.5700684
-1.738922
-4.164612
-7.52356
-11.49988
-15.92273
-20.78461
-26.19852
-32.31879
-39.30884
-47.34741
-56.55042
-66.73013
-77.13702
-86.25446
-91.91455
-91.83057
-84.40878
-69.42636
-48.28223
-23.67804
1.25824
23.77573
42.11517
55.50169
63.84491
67.29791
66.11018
60.71136
51.90636
40.97807
29.50601
19.05096
10.80042
5.322662
2.586975
2.078674
2.982361
4.387085
5.43985
5.458893
4.095215
1.374146
-2.416672
-6.81749
-11.48723
-16.31052
-21.47459
-27.40407
-34.62051
-43.54565
-54.19063
-65.93283
-77.28285
-85.99396
-89.57677
-86.00272
-74.46356
-55.72972
-31.98955
-6.188248
18.75206
40.52882
57.66971
69.39044
75.36837
75.68182
70.81392
61.80926
50.18402
37.71928
26.10345
16.63254
10.0
6.297089
5.123459
5.747574
7.320465
9.023392
10.25824
10.66371
10.11267
8.572571
6.040092
2.462936
-2.250244
-8.121056
-15.19102
-23.45805
-32.89751
-43.33126
-54.18436
-64.27493
-71.81496
-74.72359
-71.18681
-60.3111
-42.54214
-19.69482
5.474075
29.97583
51.22737
67.52774
78.10644
82.98035
82.60957
77.73972
69.32693
58.58462
46.99961
36.17942
27.52472
21.8834
19.31917
19.14438
20.24347
21.45211
21.90814
21.22329
19.35501
16.49342
12.81731
8.402481
3.198551
-2.8785
-9.937904
-18.05728
-27.30671
-37.72414
-49.13191
-60.9409
-71.88927
-80.08708
-83.28916
-79.5497
-67.88645
-48.74713
-24.06923
3.14902
29.60872
52.43871
69.687
80.51722
85.0168
83.86294
78.07947
68.83611
57.44376
45.35489
34.0914
25.02401
19.08021
16.43273
16.46301
17.95061
19.51375
20.09101
19.20927
17.0042
13.96277
10.58214
7.133755
3.592129
-0.2923813
-4.866989
-10.47512
-17.46431
-26.10926
-36.49098
-48.15891
-59.84499
-69.42606
-74.27191
-72.00507
-61.40796
-42.95895
-18.89233
7.479343
32.68468
53.9713
69.70923
79.33679
83.01173
81.28934
74.94032
65.03932
52.95738
40.32982
28.78669
19.62549
13.57597
10.6804
10.44111
11.97628
14.30676
16.50803
17.85987
17.89476
16.39457
13.37045
8.980942
3.493748
-2.775505
-9.500187
-16.46431
-23.6377
-31.26604
-39.76726
-49.49354
-60.32561
-71.26749
-80.44374
-85.37506
-83.74033
-74.10876
-56.513
-32.56343
-5.05401
22.70161
47.64281
67.47285
80.93163
87.73225
88.4186
84.04076
75.98703
65.76201
54.86129
44.6757
36.36106
30.6799
27.87923
27.67976
29.33328
31.869
34.3468
36.07116
36.61694
35.77658
33.46905
29.69994
24.61698
18.57162
12.05124
5.561312
-0.6207275
-6.673601
-13.23157
-21.14783
-31.10242
-43.09098
-56.0961
-68.08768
-76.35506
-78.20049
-71.74622
-56.5712
-33.96976
-6.670258
21.88035
48.37584
70.34995
86.48764
96.44759
100.5646
99.44553
93.80206
84.47936
72.61443
59.63829
47.1698
36.66817
29.07805
24.58376
22.69131
22.44316
22.7648
22.84919
22.15247
20.44135
17.63287
13.70164
8.673477
2.726776
-3.77597
-10.3593
-16.58974
-22.33406
-27.89606
-33.95708
-41.32407
-50.46132
-61.06853
-71.90948
-80.90308
-85.68942
-84.33688
-75.96237
-61.10098
-41.58917
-20.01614
0.9020081
18.92264
32.55226
41.11389
44.50085
43.08478
37.57169
28.96674
18.52026
7.586487
-2.602753
-11.11078
-17.41766
-21.34283
-22.996
-22.62979
-20.68082
-17.75833
-14.67636
-12.31665
-11.45331
-12.53351
-15.60175
-20.31824
-26.16766
-32.64636
-39.44971
-46.56393
-54.23416
-62.83252
-72.60156
-83.35956
-94.18918
-103.3089
-108.3473
-106.9102
-97.4415
-79.85669
-55.8071
-28.24503
-0.6308899
24.00784
43.65497
57.42081
65.19342
67.29395
64.1882
56.56491
45.49643
32.5426
19.55957
8.311707
0.06881714
-4.697479
-6.279327
-5.53299
-3.559692
-1.431427
0.01217651
0.2438354
-0.9203491
-3.396576
-6.939758
-11.25439
-16.18256
-21.71515
-28.02481
-35.41006
-44.24731
-54.77118
-66.82156
-79.48468
-90.96872
-98.78491
-100.3466
-93.79715
-78.79391
-56.75864
-30.55655
-3.653046
20.82367
40.72113
55.02289
63.52911
66.49377
64.32803
57.633
47.39685
35.07001
22.50021
11.50235
3.467285
-0.9790344
-2.111206
-0.9545593
1.077881
2.580139
2.517822
0.4329529
-3.57254
-8.950134
-15.0217
-21.28061
-27.53906
-33.95981
-40.94183
-48.97165
-58.42117
-69.49057
-81.96603
-94.99231
-106.9068
-115.2449
-117.2608
-110.7598
-95.01474
-71.22916
-42.32217
-12.07147
16.06827
39.74849
57.98088
70.69289
78.10258
80.32205
77.39478
69.63885
58.05093
44.38544
30.84364
19.50519
11.7373
7.901489
7.396133
9.014893
11.39009
13.39676
14.38397
14.10414
12.56549
9.763718
5.557953
-0.3014374
-8.095367
-17.99013
-30.04019
-44.13728
-59.90958
-76.41721
-91.93512
-103.9214
-109.5035
-106.3152
-93.37344
-71.65681
-43.86797
-13.70844
15.24852
40.33096
60.05565
73.90315
81.86638
84.15312
81.10741
73.41971
62.29834
49.48668
36.97021
26.53133
19.30614
15.55835
14.70254
15.61436
17.05107
18.01815
17.96292
16.78772
14.63639
11.71693
8.029778
3.394409
-2.617917
-10.52777
-20.8516
-33.86292
-49.33585
-66.24033
-82.54784
-95.44241
-101.8481
-99.29767
-86.76241
-65.1375
-37.04116
-6.117027
23.95583
50.31946
71.2574
86.09074
94.79137
97.686
95.29977
88.49107
78.47166
66.86418
55.48039
45.92961
39.26215
35.72108
34.6843
34.90973
34.97208
33.73495
30.72809
26.21977
20.94547
15.62497
10.53348
5.280319
-1.03273
-9.437317
-20.67593
-34.86935
-51.35152
-68.65038
-84.54605
-96.37956
-101.5358
-98.03011
-85.14061
-63.71046
-36.10281
-5.598907
24.29088
50.59021
71.2666
85.26563
92.3699
92.94675
87.80725
78.16269
65.60406
51.98105
39.17804
28.75339
21.56155
17.60257
16.06244
15.67435
15.21185
13.88486
11.54556
8.489105
5.134155
1.625183
-2.390991
-7.710602
-15.27185
-25.80161
-39.45624
-55.6236
-72.81943
-88.76563
-100.7064
-105.9175
-102.3905
-89.44949
-68.08566
-40.75058
-10.77292
18.44504
44.09485
64.32516
78.19434
85.53564
86.67261
82.35022
73.66281
62.09464
49.40259
37.38333
27.55466
20.81863
17.2822
16.28403
16.65451
17.12427
16.73651
15.07907
12.25449
8.610504
4.471375
-0.162323
-5.642548
-12.56821
-21.55649
-33.03305
-46.97665
-62.64273
-78.45001
-91.97287
-100.2993
-100.7186
-91.56033
-72.77219
-46.23343
-15.25641
16.30743
45.04663
68.6221
85.9733
96.99237
102.0933
101.8543
96.99329
88.44592
77.51996
65.78088
54.83752
45.92114
39.66663
36.06622
34.58264
34.46075
34.85406
35.01007
34.21381
31.8924
27.63129
21.31653
13.21985
3.927368
-5.844116
-15.58453
-25.17639
-35.08588
-46.10181
-59.00122
-74.02658
-90.40817
-106.1701
-118.3736
-123.8059
-119.8994
-105.5775
-81.69818
-50.90924
-16.96503
16.22906
45.44299
68.58307
84.69781
93.7868
96.46686
93.80524
87.2113
78.27429
68.59839
59.55475
52.10388
46.69696
43.40125
41.98114
42.11621
43.44232
45.50409
47.69287
49.23615
49.30212
47.20166
42.66626
35.92969
27.63202
18.63318
9.654541
1.010498
-7.468323
-16.40979
-26.69415
-39.09717
-53.9267
-70.59314
-87.36774
-101.4959
-109.7526
-109.2906
-98.62216
-78.21692
-50.44427
-18.93945
12.43622
40.51099
63.30194
80.04498
90.8092
96.15259
96.80151
93.63416
87.63281
79.93317
71.74646
64.15466
57.97821
53.61261
51.00494
49.79767
49.54181
49.81903
50.33679
50.83142
50.95538
50.20764
47.98981
43.80841
37.44092
29.0849
19.24335
8.60144
-2.221497
-12.88904
-23.38339
-34.06281
-45.54437
-58.49371
-73.26089
-89.45126
-105.623
-119.2963
-127.4717
-127.4077
-117.5945
-98.28397
-71.5307
-40.62466
-9.200195
19.65118
43.8638
62.40997
75.00323
81.75601
83.02362
79.50125
72.37646
63.33267
54.33817
47.14197
42.79013
41.36972
42.1286
43.84088
45.36697
46.00888
45.65829
44.62451
43.28174
41.79669
39.97696
37.34756
33.29449
27.37857
19.48807
9.976227
-0.4581909
-10.927
-20.6904
-29.32843
-36.90118
-43.92755
-51.21326
-59.6156
-69.74683
-81.5903
-94.26634
-105.937
-114.049
-115.9626
-109.7575
-94.92413
-72.65706
-45.57864
-16.97916
10.01715
33.06982
50.79675
62.67044
68.74631
69.46124
65.63043
58.43591
49.37259
40.06973
32.03082
26.26669
23.1772
22.47612
23.45383
25.19141
26.92522
28.18375
28.82814
28.89273
28.32895
26.89549
24.1907
19.85286
13.77763
6.264984
-2.042526
-10.39867
-18.20793
-25.3078
-31.98283
-38.90492
-46.88641
-56.48337
-67.67597
-79.56508
-90.40755
-97.83105
-99.47543
-93.65154
-79.96072
-59.52271
-34.72382
-8.56916
16.06844
36.98811
52.96735
63.55811
68.86845
69.29718
65.43118
58.13873
48.56962
38.09286
28.0723
19.63311
13.42799
9.633377
8.058182
8.259377
9.685074
11.70267
13.58768
14.64832
14.28183
12.14858
8.241207
2.830021
-3.649094
-10.70371
-17.92936
-25.08115
-32.16942
-39.50333
-47.66933
-57.31205
-68.72676
-81.40118
-93.75166
-103.2508
-107.1017
-103.1073
-90.51586
-70.3191
-44.98464
-17.70892
8.411575
31.01006
48.67324
60.82669
67.51674
69.19791
66.62847
60.82836
53.00224
44.41633
36.19809
29.20802
23.89968
20.40488
18.5843
18.15527
18.73872
19.88452
21.055
21.64029
21.05661
18.84928
14.74926
8.829323
1.433132
-6.837791
-15.28027
-23.36693
-30.88415
-38.14098
-45.90214
-55.11892
-66.44755
-79.71269
-93.59875
-105.7161
-113.1937
-113.5258
-105.3679
-88.96108
-66.09731
-39.5266
-12.28149
13.00868
34.48032
51.05066
62.28234
68.17226
69.07601
65.6955
59.13845
50.80683
42.17232
34.52781
28.63584
24.66953
22.24817
20.7437
19.58915
18.5285
17.57533
16.86044
16.30869
15.48152
13.64719
10.01565
4.120674
-3.908073
-13.36013
-23.16431
-32.34277
-40.32356
-47.18021
-53.46642
-60.08334
-67.91543
-77.58369
-89.08835
-101.5742
-113.2154
-121.4099
-123.4316
-117.2058
-102.1241
-79.33815
-51.50372
-21.98126
6.071007
30.3292
49.50964
63.16929
71.39937
74.54719
73.25626
68.45605
61.4108
53.52537
46.1225
40.16397
36.1288
34.04324
33.56125
34.20768
35.53454
37.17134
38.89889
40.50113
41.67308
41.89321
40.47309
36.67068
30.02166
20.57257
8.914448
-3.87722
-16.65709
-28.56899
-39.33684
-49.39426
-59.57413
-70.71329
-83.08658
-95.9993
-107.639
-115.4816
-116.9605
-110.3373
-95.23912
-72.84795
-45.51327
-16.17256
12.30771
37.57705
57.95795
72.44269
80.68306
82.91156
79.9859
73.22736
64.32513
54.96516
46.61466
40.22226
36.11776
34.0898
33.55054
33.82745
34.36683
34.8904
35.27784
35.42682
35.03968
33.59129
30.4558
25.1338
17.53962
8.094972
-2.359518
-12.87247
-22.66925
-31.4845
-39.64724
-47.96783
-57.44629
-68.80546
-82.01778
-95.99368
-108.5642
-116.8803
-118.1776
-110.5852
-93.76402
-69.1251
-39.43279
-8.09331
21.71743
47.61195
68.24764
83.09164
92.10221
95.47966
93.62553
87.3008
77.77014
66.76598
56.18896
47.64
41.97745
39.15964
38.40288
38.6625
39.11388
39.45408
39.78445
40.34583
41.10559
41.53272
40.7373
37.7731
32.08513
23.75626
13.5244
2.456259
-8.412361
-18.41133
-27.4082
-35.72933
-43.98238
-52.92171
-63.23839
-75.31199
-88.96083
-103.0933
-115.6166
-123.6989
-124.4912
-116.0318
-98.02828
-72.08835
-41.29196
-9.299335
20.60971
46.12518
65.98973
79.74219
87.38052
89.21502
85.90245
78.55984
68.73139
58.1348
48.32931
40.37166
34.72868
31.29861
29.63994
29.2034
29.49617
30.13364
30.8508
31.35795
31.30732
30.29296
27.89685
23.87976
18.30546
11.54189
4.189936
-3.090481
-9.864388
-16.06446
-22.00924
-28.39309
-36.02689
-45.50291
-56.89383
-69.36814
-81.16459
-89.81792
-92.77528
-88.1583
-75.43736
-55.63748
-31.10251
-4.840765
20.23392
41.85524
58.56684
69.69807
75.15569
75.32119
71.04789
63.61007
54.5612
45.47168
37.57528
31.53593
27.41532
24.85379
23.33403
22.44802
22.01398
21.95899
22.2264
22.59455
22.58706
21.56887
18.90054
14.16847
7.401861
-0.8960361
-9.874359
-18.65933
-26.68178
-33.90145
-40.83177
-48.32867
-57.17776
-67.59858
-78.90279
-89.3995
-96.65442
-98.08897
-91.7811
-77.1687
-55.35571
-28.8922
-1.083569
24.93055
46.83355
63.43884
74.51698
80.36548
81.43723
78.20772
71.35833
61.93266
51.38576
41.29074
33.01113
27.30937
24.27698
23.43509
24.06526
