1652986493.2441099
64
147.9128
132.8848
116.9807
101.5507
87.52618
75.51266
65.99261
59.40237
56.039
55.83112
58.17706
61.92276
65.55353
67.6178
67.07733
63.52362
57.19839
48.81744
39.28552
29.41602
19.72943
10.30017
0.7258301
-9.786804
-22.11786
-36.76489
-53.32141
-70.07843
-84.09521
-91.82635
-90.10608
-77.23871
-53.6828
-21.99774
13.83209
49.47687
81.3064
106.9019
125.1439
135.8444
139.4081
136.5629
128.3152
115.9814
101.136
85.49738
70.70227
58.0968
48.58142
42.55383
39.92749
40.18756
42.46503
45.66943
48.64996
50.37482
50.08136
47.34216
42.11798
34.71124
25.69214
15.76019
5.583801
-4.444702
-14.36285
-24.72076
-36.36279
-49.90698
-65.09552
-80.37714
-92.87494
-99.07367
-95.88062
-81.74438
-57.30896
-25.35327
10.02612
44.56177
74.79041
98.56091
114.9576
123.9259
125.8555
121.4785
111.8038
98.26233
82.62415
66.80908
52.59607
41.32288
33.72046
29.85474
29.22412
30.90881
33.79126
36.70703
38.65125
38.9032
37.06396
33.03748
26.99988
19.30444
10.48608
1.127075
-8.296143
-17.63586
-27.22241
-37.81921
-50.2439
-64.73633
-80.3855
-94.86414
-104.8772
-107.0634
-99.17444
-80.92065
-54.18201
-22.48767
9.981445
39.43335
63.14038
79.61597
88.45715
90.0376
85.2655
75.48926
62.4292
48.00049
34.03638
21.99707
12.74548
6.482056
2.937622
1.555054
1.740356
2.893799
4.348999
5.263916
4.634644
1.452148
-4.994507
-14.85657
-27.56201
-41.94568
-56.60168
-70.32739
-82.63843
-94.01904
-105.915
-120.4015
-139.5355
-164.6345
-195.4332
-229.5934
-262.7644
-289.4541
-304.4697
-304.541
-289.4106
-261.9548
-227.3799
-191.6512
-159.8776
-135.2659
-118.7983
-109.5692
-105.3981
-103.4215
-100.5995
-94.15369
-81.92151
-62.54639
-35.72656
-1.939087
37.9563
83.13757
133.281
188.8789
251.0077
320.6553
397.4622
478.4802
557.9258
628.0059
680.9548
711.4803
718.4619
705.1321
677.7516
643.3103
607.339
572.8799
540.5669
509.5718
478.7408
447.2755
414.86
381.4459
346.9651
311.2831
274.3762
236.6151
198.9095
162.8081
129.8363
100.9257
75.93933
53.58521
31.9541
9.310303
-15.26282
-41.6449
-68.87646
-95.91113
-122.1903
-147.9913
-174.4172
-203.0605
-235.5742
-273.2001
-316.147
-363.0347
-410.66
-454.2934
-488.8096
-510.2232
-517.079
-510.8903
-495.5603
-475.8249
-455.6237
-437.0653
-420.2964
-404.0633
-386.5216
-365.821
-340.3679
-309.0388
-271.3809
-227.9579
-180.4697
-131.5977
-84.47278
-42.06
-6.600037
20.70862
39.67285
50.93793
55.73572
55.61523
52.29401
47.45752
42.5918
38.8233
36.75525
36.38599
37.16693
38.18976
38.46899
37.32025
34.53827
30.40509
25.49896
20.40656
15.46796
10.68024
5.704651
-0.02661133
-7.125793
-16.12646
-27.20569
-39.9187
-52.97095
-64.16345
-70.74304
-70.09973
-60.61847
-42.28406
-16.79199
12.93011
43.60028
72.34369
97.15887
116.9
131.0132
139.301
141.8672
139.2219
132.3957
122.8668
112.2616
102.0457
93.26196
86.43134
81.63361
78.6239
76.92114
75.91699
74.95081
73.39246
70.74255
66.72565
61.28186
54.54364
46.74939
38.12189
28.72491
18.35059
6.511963
-7.309692
-23.22681
-40.45966
-57.0672
-70.15643
-76.57806
-73.87787
-61.15076
-39.40747
-11.2644
19.78308
50.29089
77.52008
99.75165
116.2055
126.7684
131.8339
132.0899
128.4611
122.0638
114.114
105.8002
98.15857
91.94458
87.48297
84.62457
82.7218
80.77429
77.68994
72.65021
65.36279
56.16016
45.8432
35.32147
25.26117
15.84015
6.744629
-2.702637
-13.3028
-25.76239
-40.41302
-56.96216
-74.27365
-90.23291
-102.0282
-106.7367
-102.2251
-88.03293
-65.7229
-38.62143
-10.86206
13.7793
32.79941
45.23404
51.27606
51.6106
46.86887
37.52582
24.12369
7.645325
-10.37415
-27.97919
-43.29474
-55.01501
-62.73434
-66.94617
-68.80457
-69.72188
-71.00461
-73.53979
-77.69035
-83.39931
-90.36188
-98.24588
-106.8965
-116.3314
-126.7503
-138.4491
-151.739
-166.8311
-183.5692
-201.0968
-217.5249
-230.007
-235.2449
-230.4668
-214.4534
-188.1685
-154.6378
-118.1813
-83.22285
-53.24863
-30.22191
-14.61382
-5.795807
-2.510742
-3.276978
-6.618698
-11.13669
-15.59415
-18.97105
-20.52827
-19.83673
-16.81511
-11.69794
-4.932388
2.912064
11.26799
19.62314
27.46436
34.21259
39.2271
41.98686
42.34875
40.78699
38.37378
36.46732
36.13104
37.60422
40.03256
41.71506
40.75073
35.87933
27.23734
16.67377
7.514618
3.719391
8.737732
24.42841
50.3772
84.00388
121.2648
157.813
190.0561
215.7693
234.155
245.4195
250.2931
249.6663
244.5316
236.1136
225.9702
215.8733
207.5105
202.0906
199.9937
200.6579
202.7086
204.3352
203.7371
199.5614
191.1747
178.5968
162.2398
142.5235
119.634
93.54807
64.37699
32.78522
0.2598648
-31.04649
-58.91513
-81.82249
-99.46467
-112.8638
-123.9738
-134.9987
-147.7533
-163.1428
-180.8368
-199.1607
-215.1903
-225.2534
-225.7842
-214.4773
-191.1593
-158.1133
-119.5038
-80.18454
-44.40276
-14.86278
7.407776
22.61356
31.59599
35.28055
34.58344
30.50369
24.22495
17.04648
10.21747
4.592316
0.5140076
-2.169769
-3.904419
-5.175903
-6.349243
-7.624878
-9.190277
-11.30716
-14.39993
-18.92453
-25.2066
-33.30432
-43.03537
-54.09613
-66.20377
-79.20029
-92.94897
-107.2506
-121.6658
-135.5694
-148.2403
-159.0108
-167.3933
-173.2271
-176.8204
-179.0696
-181.425
-185.4424
-191.9836
-200.3854
-208.0927
-211.1336
-205.3689
-188.0631
-159.0228
-120.7614
-77.67361
-34.65405
4.217285
36.36493
60.65439
76.98135
85.72321
87.50494
83.13263
73.77499
61.02658
46.94855
33.8895
24.08569
19.22983
19.99048
25.87454
35.41116
46.72232
58.07104
68.29767
76.85251
83.51907
88.0647
90.09415
89.25061
85.44952
79.1463
71.20294
62.58347
53.97131
45.60303
37.43546
29.47455
22.11209
16.18185
12.81503
13.02695
17.27145
25.13
35.15503
45.08383
52.37704
55.02243
52.3815
45.78238
38.46909
34.79074
38.88187
53.23703
77.88513
110.3232
146.295
180.957
210.0256
230.4129
240.407
239.5238
228.2543
207.8734
180.3211
148.0436
113.7438
80.14276
49.60938
23.93457
4.143494
-9.574341
-17.74017
-21.35968
-21.57391
-19.36682
-15.33014
-9.842285
-3.280212
3.69751
9.983948
14.29553
15.57391
13.4024
8.201538
0.9702759
-7.238953
-15.8476
-25.07013
-35.84589
-49.41193
-66.71228
-87.83435
-111.6389
-135.6317
-156.3317
-169.9742
-173.4998
-165.4836
-146.7004
-120.0056
-89.55969
-59.65198
-33.6709
-13.53674
0.184082
7.765442
9.737793
6.627808
-0.9152832
-11.88477
-24.66162
-37.22498
-47.57031
-54.27063
-56.91235
-56.11145
-53.2533
-49.95349
-47.54004
-46.76794
-47.74597
-50.20264
-53.76245
-58.28577
-63.91846
-71.09814
-80.20593
-91.3291
-104.0651
-117.5039
-130.6139
-142.5731
-153.1561
-162.8104
-172.5004
-183.3632
-196.3539
-211.9351
-229.7483
-248.4669
-265.6075
-277.8602
-281.6656
-274.3137
-254.9011
-224.8661
-187.8003
-148.4236
-111.3307
-79.84143
-55.56763
-38.62256
-28.26099
-23.5061
-23.45618
-27.17505
-33.34991
-40.17084
-45.41119
-46.98138
-43.53131
-34.85931
-21.92279
-6.37323
10.11157
26.35547
41.71613
55.82574
68.22162
78.18585
84.9762
88.17041
87.95386
84.97052
80.02972
73.61945
65.76563
56.19843
44.74042
31.59766
17.38904
2.884521
-11.31909
-25.00717
-38.3938
-51.98376
-66.46259
-82.52863
-100.5622
-120.1734
-139.7153
-156.2075
-165.832
-165.0953
-152.024
-126.8627
-91.87766
-50.30231
-5.190079
41.22934
87.33118
131.4418
171.2681
204.0268
227.319
240.0564
243.0448
238.6001
229.6363
218.5963
206.9502
195.306
183.944
173.3285
164.2228
157.3713
152.9746
150.4109
148.3403
145.2005
139.8182
131.9093
122.1198
111.7174
102.0951
94.20012
88.19196
83.40246
78.60507
72.46803
64.08707
53.36008
41.00758
28.3132
16.56483
6.548401
-1.812805
-9.416031
-17.78372
-28.57472
-43.04503
-61.49887
-82.70642
-103.6632
-119.7829
-125.8575
-117.5546
-92.99686
-53.6938
-4.348297
48.46608
98.20372
139.9381
171.1309
191.4452
201.8217
203.6835
198.4164
187.3938
172.1379
154.4622
136.3051
119.3795
104.8135
92.97882
83.60582
76.1443
70.13126
65.38063
62.01752
60.19483
59.70578
59.72959
58.82327
55.31451
47.86405
36.01122
20.39726
2.591728
-15.5272
-32.48562
-47.80395
-62.12741
-76.8355
-93.28287
-112.0929
-132.706
-153.6149
-173.0183
-189.6719
-203.4482
-215.3757
-227.1871
-240.6389
-256.9658
-276.5522
-298.7701
-321.8596
-342.8863
-358.0528
-363.3395
-355.7299
-334.1874
-300.1335
-256.9552
-208.7079
-158.6961
-108.5369
-58.39468
-8.062073
41.69972
88.48802
128.737
159.0197
177.5911
185.1523
184.6252
179.8725
174.3342
170.0013
167.3537
165.9684
165.3829
165.5904
166.9377
169.6657
173.3966
177.0259
179.0335
178.0716
173.4895
165.5049
155.0618
143.2771
130.9136
118.0546
104.2073
88.83438
71.91675
54.37421
37.87494
24.26553
14.76608
9.394775
6.805817
4.708923
0.5133667
-7.847748
-21.18704
-38.57358
-57.19333
-72.75909
-80.40054
-76.04581
-57.62814
-25.8251
16.0256
62.83844
109.1672
150.371
183.3371
206.5609
219.8389
223.7719
219.4823
208.4949
192.7126
174.3301
155.5552
138.2907
123.8092
112.5817
104.3916
98.5612
94.27722
90.81465
87.51581
83.71411
78.6418
71.4717
61.53983
48.63483
33.13007
15.93776
-1.780602
-19.02497
-35.25663
-50.46763
-65.03044
-79.39092
-93.76228
-107.9671
-121.5777
-134.1323
-145.4622
-155.8159
-165.9002
-176.7245
-189.2864
-204.0732
-220.6057
-237.0062
-249.9473
-255.2589
-248.9857
-228.7437
-194.7549
-150.0648
-99.82843
-49.87216
-5.231567
30.84276
57.06831
73.66209
81.63672
82.23633
76.75993
66.63672
53.558
39.38864
25.97174
14.78329
6.718353
2.062714
0.5935364
1.778015
4.901764
9.105652
13.37024
16.54999
17.58044
15.74347
10.86389
3.410492
-5.702881
-15.46771
-25.17474
-34.67267
-44.34879
-54.90955
-67.03442
-81.01361
-96.5885
-112.9911
-129.174
-144.2019
-157.5873
-169.5634
-181.1443
-193.7992
-208.8004
-226.3646
-245.0336
-261.55
-271.5944
-271.0024
-257.1761
-229.9906
-191.9034
-147.216
-100.8249
-57.13185
-19.18396
11.48158
34.66632
51.10431
62.04733
68.91826
73.04858
75.58508
77.47351
79.59038
82.73175
87.5874
94.59386
103.8505
115.0739
127.7161
141.1366
154.7346
167.9562
180.1557
190.5486
198.267
202.5235
202.8782
199.3029
192.1661
182.0088
169.383
154.7292
138.3733
120.5968
101.6415
81.73248
61.05491
39.74557
17.8704
-4.58445
-27.76176
-51.89097
-77.01737
-102.5244
-126.7136
-146.5918
-158.4139
-158.6812
-145.3954
-118.9121
-82.00216
-39.02608
5.29879
46.99892
83.32672
112.6031
133.8229
146.4265
150.3433
146.3013
135.9831
121.7676
106.2527
91.66895
79.50017
70.48114
64.83464
62.44771
62.97859
65.73093
69.61462
73.18887
74.97835
73.83791
69.27043
61.46933
51.07713
38.88065
25.47144
11.11847
-4.202824
-20.59546
-38.05555
-56.28738
-74.66322
-92.39607
-108.6352
-122.7929
-134.6555
-144.5304
-153.2591
-162.1079
-172.406
-185.063
-199.9586
-215.4294
-228.2491
-234.1632
-228.9576
-209.7968
-176.2725
-130.7837
-77.88782
-23.09515
28.59003
73.62746
110.2626
138.091
157.3968
168.6505
172.3149
169.1036
160.2169
147.4605
132.9404
118.5756
105.592
94.33116
84.41208
75.10141
65.79498
56.24435
46.59127
37.15617
28.2335
19.93447
12.16174
4.603918
-3.170815
-11.63353
-21.22548
-32.23119
-44.64929
-58.22065
-72.46783
-86.85121
-100.9389
-114.551
-127.7257
-140.767
-154.1445
-168.3706
-183.7511
-199.9693
-215.6951
-228.3618
-234.4982
-230.3959
-213.2778
-182.2949
-139.0171
-87.21067
-31.96731
21.48081
68.79284
107.0768
135.0154
152.517
160.3374
159.7711
152.4956
140.4798
125.8657
110.8463
97.40388
87.11358
80.90278
79.0399
81.18472
86.61523
94.44306
103.8356
114.1514
124.9316
135.9253
147.0371
158.2018
169.2778
179.8205
189.0475
195.9012
199.3751
198.8211
194.2154
186.114
175.3653
162.7024
148.4146
132.2941
113.7634
92.07425
66.55672
36.94267
3.80792
-30.97718
-64.00543
-90.71184
-106.4222
-107.802
-94.11771
-67.71735
-33.41754
2.858963
35.71427
61.42344
78.3233
86.54228
87.31386
82.3212
73.2869
61.78242
49.21475
36.76782
25.43048
15.89729
8.646988
3.929413
1.844788
2.314117
4.996094
9.312561
14.43289
19.45911
23.61746
26.41986
27.66995
27.39902
25.65677
22.38507
17.42511
10.62015
1.995148
-8.171783
-19.36111
-30.93701
-42.2926
-52.99146
-62.83508
-71.95508
-80.87091
-90.35126
-101.2106
-113.8736
-127.889
-141.6165
-152.2747
-156.4637
-151.1135
-134.5497
-107.1791
-71.55994
-31.85693
7.287292
41.80859
68.89545
87.20538
96.5387
97.40521
90.63068
77.27502
58.66718
36.47052
12.62555
-10.9021
-32.48755
-51.11261
-66.46436
-78.81262
-88.7312
-96.82635
-103.5743
-109.2977
-114.2665
-118.8723
-123.73
-129.6923
-137.6381
-148.1819
-161.4102
-176.7418
-193.084
-209.1721
-223.9161
-236.7785
-247.8041
-257.5258
-266.77
-276.4287
-287.1822
-299.1677
-311.6317
-322.6775
-329.4212
-328.6147
-317.5644
-294.9745
-261.3961
-219.1036
-171.536
-122.6024
-76.10223
-35.27802
-2.623901
20.35516
33.30023
37.10547
33.79315
26.10883
16.93665
8.708008
3.029663
0.5586548
1.225647
4.553528
10.02856
17.24261
25.82614
35.24109
44.53781
52.41766
57.54178
59.01453
56.66519
51.09232
43.33197
34.36191
24.64603
14.03958
1.96669
-12.17458
-28.58273
-46.92313
-66.48817
-86.52785
-106.4476
-125.7328
-143.6013
-158.6371
-168.7561
-171.6772
-165.6488
-150.1184
-125.8225
-94.51257
-58.36761
-19.72749
18.67909
53.19186
79.17081
91.99161
88.95166
71.18814
44.2323
16.5314
-3.418488
-10.20065
-3.041351
14.88828
38.84943
65.25586
92.92975
122.5978
155.0794
189.5198
222.7814
250.3395
267.9116
272.8472
265.0242
246.7823
222.0813
195.2048
169.4409
146.412
126.1192
107.4172
88.8186
69.14679
47.89233
25.37366
2.797058
-17.85382
-34.01251
-42.95563
-42.4856
-31.7356
-11.5177
15.78772
46.82874
78.12354
106.5618
129.6997
145.74
153.6256
153.3679
146.1229
133.8757
118.9883
103.7251
89.72119
77.89441
68.59412
61.81104
57.48987
55.58252
55.89233
57.90491
60.58704
62.45605
61.92468
57.82092
49.82141
38.60107
25.56567
12.28699
-0.05004883
-11.02307
-21.026
-31.09644
-42.46619
-56.11768
-72.28479
-90.05847
-107.1705
-120.1943
-125.239
-119.0446
-100.0444
-69.06226
-29.16125
15.1084
58.88489
98.06592
129.8932
153.0154
167.1514
172.7003
170.5117
161.8743
148.5399
132.7031
116.7181
102.6946
92.04211
85.20776
81.70422
80.47607
80.40698
80.64575
80.79187
80.65149
79.95496
78.11401
74.2959
67.67859
57.8999
45.2887
30.83374
15.86426
1.606201
-11.24756
-22.69531
-33.39355
-44.42297
-56.9093
-71.58582
-88.276
-105.5464
-120.691
-130.1835
-130.6008
-119.7094
-97.30969
-65.4281
-27.79846
11.1908
47.58569
78.55676
102.5513
119.0031
127.9254
129.6664
124.9545
114.9806
101.5286
86.77917
72.90662
61.61621
53.78052
49.33887
47.53577
47.32214
47.78455
48.32874
48.72485
48.87012
48.53479
47.20459
44.13806
38.62903
30.34729
19.54834
7.020264
-6.15979
-18.95667
-30.66516
-41.10107
-50.58411
-59.8573
-69.87195
-81.49377
-95.07837
-110.0443
-124.6093
-135.9437
-140.8082
-136.5604
-122.0376
-98.0282
-67.07629
-32.68652
1.575439
32.77051
58.88428
78.74084
91.76636
97.84277
97.3385
91.17444
80.86749
68.34784
55.63177
44.48242
36.06927
30.85272
28.60382
28.59711
29.93634
31.79492
33.62524
35.0874
35.93365
35.78827
34.10358
30.29016
23.95813
15.16229
4.512146
-6.941345
-18.08325
-28.08734
-36.71838
-44.39844
-52.013
-60.61578
-71.03009
-83.40472
-96.91003
-109.6744
-119.0413
-122.1703
-116.8852
-102.3574
-79.50507
-50.75342
-19.37903
11.34961
38.83221
61.44037
78.40601
89.46014
94.61139
94.06586
88.43066
78.8551
67.04486
54.98016
44.49823
36.80292
32.21552
30.2594
29.97968
30.37427
30.75494
30.82031
30.51544
29.80518
28.43958
25.92859
21.74255
15.51477
7.217468
-2.738525
-13.63696
-24.62445
-34.97675
-44.2652
-52.51563
-60.22314
-68.28436
-77.71881
-89.19177
-102.531
-116.3998
-128.3414
-135.2916
-134.4937
-124.3776
-105.1328
-78.7121
-48.21423
-17.05664
11.85263
36.53369
55.9938
69.93295
78.42773
81.74399
80.31192
74.86649
66.50357
56.69168
47.005
38.85049
33.16446
30.22089
29.72375
30.90274
32.85303
34.73904
35.9892
36.32098
35.68594
34.08334
31.48392
27.69504
22.42032
15.42499
6.641418
-3.645782
-14.83926
-26.16675
-36.91992
-46.69791
-55.44498
-63.48215
-71.31122
-79.53455
-88.70685
-99.1355
-110.6447
-122.3022
-132.3408
-138.3312
-137.8105
-129.0173
-111.5854
-86.79352
-57.25252
-26.19835
3.310333
28.9579
49.39661
64.1044
73.13255
76.93115
76.22189
71.98849
65.41939
57.78557
50.26083
43.83549
39.09763
36.27855
35.28697
35.77834
37.31847
39.4045
41.56195
43.27327
44.03169
43.36411
40.92474
36.64606
30.76225
23.72465
16.03069
8.021538
-0.2395401
-8.866615
-18.01915
-27.71529
-37.71754
-47.61714
-56.95121
-65.40046
-72.90797
-79.75721
-86.49412
-93.87186
-102.5695
-112.8558
-124.1994
-135.0551
-142.9909
-145.2438
-139.5604
-124.934
-102.0527
-73.09885
-41.17354
-9.506443
19.20993
43.12151
61.28264
73.43707
79.84151
81.13567
78.28481
72.483
65.06792
57.37569
50.53644
45.38026
42.30884
41.28907
41.97272
43.84306
46.31517
48.84382
50.94914
52.16792
52.01858
50.09038
46.13783
40.21767
32.75587
24.42878
15.94596
7.784577
0.003782272
-7.724513
-15.90657
-24.91397
-34.75126
-44.99004
-54.95686
-63.99633
-71.79118
-78.52515
-84.87416
-91.82529
-100.3441
-110.9024
-123.0837
-135.362
-145.216
-149.6671
-146.0991
-133.072
-110.8308
-81.35286
-47.76902
-13.57882
18.10684
45.04409
65.95164
80.36327
88.39612
90.61772
87.98733
81.77356
73.47802
64.63111
56.54485
50.12406
45.84627
43.80463
43.8063
45.52862
48.50356
52.12317
55.64654
58.24539
59.17209
57.90215
54.3084
48.65788
41.52403
33.54633
25.23682
16.82741
8.264549
-0.6028996
-9.921881
-19.66249
-29.62452
-39.49824
-48.96964
-57.82375
-66.03206
-73.84511
-81.78043
-90.60838
-100.9869
-113.0481
-125.9135
-137.5446
-145.0042
-145.2622
-136.1918
-117.3369
-90.16933
-57.61877
-23.28423
9.533581
38.36418
61.77142
79.09326
90.14473
95.02558
94.08896
88.12555
78.46257
66.91824
55.53556
46.15163
39.95597
37.2278
37.39091
39.31203
41.80583
43.96948
45.40372
46.07852
46.06111
45.24345
43.23989
39.5134
33.61254
25.45927
15.45172
4.353539
-6.922676
-17.61873
-27.31689
-36.0603
-44.27836
-52.69079
-62.07928
-73.04521
-85.70599
-99.34167
-112.2954
-122.0857
-125.9399
-121.5513
-107.8196
-85.27998
-56.00632
-23.09442
10.14035
40.78658
66.76073
86.77046
100.1498
106.6992
106.6664
100.8777
90.75186
78.23347
65.4108
54.12282
45.54729
40.04816
37.31146
36.61969
37.19843
38.44498
39.94936
41.36852
42.29713
42.17038
40.32082
36.17006
29.44392
20.31703
9.433334
-2.242172
-13.75316
-24.40245
-34.01799
-42.98727
-52.18729
-62.66
-75.19051
-89.80818
-105.4088
-119.6838
-129.4923
-131.6936
-124.0755
-106.1663
-79.43777
-46.88643
-12.19208
21.20718
50.73895
74.8481
92.74298
104.1281
108.963
107.5642
100.7828
90.10117
77.51312
65.13217
54.7603
47.44081
43.32118
41.8176
41.9408
42.72073
43.49463
43.94223
43.94841
43.39941
