1652986861.2891119
64
-19.63481
-31.73137
-45.53375
-60.03976
-73.59618
-84.06564
-89.21397
-87.18102
-76.9841
-58.89345
-34.51083
-6.492966
22.02588
48.09004
69.43149
84.73647
93.58191
96.25117
93.5175
86.47479
76.50937
65.19054
54.12836
44.66837
37.68774
33.39088
31.37909
30.83319
30.77419
30.31467
28.77748
25.76106
21.03979
14.58339
6.536926
-2.799149
-12.99585
-23.56027
-34.06635
-44.27779
-54.26849
-64.48785
-75.61581
-88.20341
-102.1301
-116.1725
-127.9116
-134.1848
-132.0582
-119.8658
-97.88487
-68.3542
-34.77086
-0.8621979
30.23987
56.46741
76.74268
90.67511
98.34079
100.209
97.17058
90.5325
81.81978
72.52858
63.85477
56.57956
51.08186
47.45132
45.59779
45.28349
46.13936
47.59015
48.90782
49.24275
47.771
43.80124
36.9996
27.50897
15.95973
3.355377
-9.197632
-20.81195
-31.08446
-40.17036
-48.79506
-57.96765
-68.6385
-81.24031
-95.25607
-108.9902
-119.7342
-124.3522
-120.2305
-106.1719
-82.93497
-53.08689
-20.29929
11.67006
39.88686
62.65926
79.43425
90.37154
95.84754
96.24542
92.06964
84.1517
73.86811
63.03815
53.53066
46.74713
43.23079
42.55604
43.61933
45.15866
46.16509
46.16919
45.20013
43.49505
41.22344
38.28592
34.28849
28.72492
21.21996
11.76457
0.8006325
-10.90196
-22.5113
-33.42638
-43.45256
-52.79357
-61.8982
-71.23058
-81.1479
-91.78104
-102.954
-113.9929
-123.569
-129.6887
-130.0565
-122.6865
-106.6708
-82.69557
-52.96518
-20.68379
10.79457
38.75049
61.4835
78.23924
88.92284
93.80496
93.38527
88.51718
80.44723
70.81456
61.38332
53.74353
48.87258
46.99793
47.68364
50.03866
53.11847
56.14504
58.57111
59.9898
60.0356
58.32185
54.5619
48.72568
41.15883
32.50101
23.48709
14.64488
6.093803
-2.413177
-11.24876
-20.62919
-30.44505
-40.31068
-49.69428
-58.21146
-65.71393
-72.38304
-78.65111
-85.13791
-92.56561
-101.5363
-112.3019
-124.3143
-135.999
-144.8538
-147.937
-142.771
-128.22
-104.961
-75.33458
-42.66122
-10.32155
19.04347
43.79323
63.18126
77.03409
85.40308
88.57288
87.2038
82.42331
75.75946
68.81943
62.89621
58.64854
56.12257
54.96288
54.70203
55.05533
55.84561
56.94727
58.07544
58.70639
58.20718
56.03104
51.86194
45.77229
38.15385
29.58698
20.6893
12.01054
3.83551
-3.804337
-11.11334
-18.46761
-26.21231
-34.43704
-42.95959
-51.32593
-59.01105
-65.703
-71.50095
-76.95062
-82.96066
-90.50809
-100.2735
-112.2873
-125.6331
-138.3902
-147.886
-151.2534
-146.2003
-131.7477
-108.5708
-78.91379
-46.02472
-13.25925
16.61087
41.84732
61.7417
76.26721
85.66592
90.25751
90.41998
86.75201
80.30664
72.49762
64.88654
58.82629
55.11624
53.85291
54.57526
56.49402
58.76639
60.66788
61.63837
61.26645
59.25107
55.4118
49.74469
42.43387
33.84167
24.3804
14.41113
4.14801
-6.309509
-16.89612
-27.46634
-37.7171
-47.2858
-55.9165
-63.63281
-70.79745
-78.09879
-86.31177
-95.97098
-107.0641
-118.6809
-128.9778
-135.4503
-135.5243
-127.3574
-110.5588
-86.44873
-57.71228
-27.66611
0.6638184
25.12146
44.57004
58.68692
67.61179
71.68466
71.40341
67.46133
60.81662
52.7124
44.55737
37.75586
33.4574
32.23505
33.9108
37.57425
41.8642
45.39093
47.27094
47.24799
45.58624
42.6998
38.78723
33.75726
27.33133
19.38858
10.1019
-0.01568604
-10.31998
-20.29816
-29.69211
-38.53879
-47.07541
-55.6236
-64.58014
-74.35727
-85.26215
-97.25998
-109.6257
-120.7379
-128.2333
-129.5234
-122.6076
-106.8208
-83.1532
-54.01492
-22.59402
8.032898
35.49802
58.29141
75.65933
87.30811
93.25836
93.8353
89.806
82.38992
73.17201
63.83675
55.83177
50.14519
47.19841
46.87744
48.62199
51.62979
54.9749
57.79681
59.37402
59.20554
57.04581
52.89633
46.96489
39.53511
30.9198
21.35625
11.01323
0.005691528
-11.55191
-23.45543
-35.45358
-47.1926
-58.29694
-68.49014
-77.73692
-86.37032
-95.08102
-104.7407
-115.99
-128.7913
-141.9828
-153.2695
-159.6507
-158.182
-146.9637
-125.7839
-96.30196
-61.59242
-25.30356
9.266205
39.70752
64.67302
83.68063
96.69136
103.9131
105.7435
102.946
96.70114
88.6004
80.3036
73.1868
68.04813
65.02116
63.78459
63.82401
64.67461
65.91737
67.10587
67.65303
66.85971
64.1179
59.1219
52.07326
43.55376
34.25772
24.6698
14.92044
4.814484
-5.946587
-17.46525
-29.57579
-41.77039
-53.39852
-63.90627
-73.02282
-80.89347
-88.13638
-95.76807
-104.8426
-116.0909
-129.3862
-143.3461
-155.3726
-162.1597
-160.5555
-148.5823
-126.1748
-95.24576
-59.18501
-21.8934
13.17609
43.6796
68.42096
87.09365
99.82729
106.8879
108.7083
106.0117
99.97353
92.14569
84.18707
77.49197
72.9006
70.60124
70.27707
71.3608
73.24429
75.39467
77.35414
78.65615
78.83808
77.4606
74.19442
68.92959
61.82801
53.25402
43.68681
33.57245
23.19869
12.66986
2.004822
-8.764009
-19.46548
-29.74105
-39.173
-47.47333
-54.73735
-61.56914
-69.02557
-78.2541
-90.03891
-104.1596
-119.0888
-132.0862
-139.7467
-139.0058
-128.0634
-106.9919
-77.75092
-43.61828
-8.322563
24.77484
53.20078
75.56503
91.35335
100.7702
104.4279
103.2281
98.24983
90.71339
81.91328
73.0857
65.32887
59.43015
55.80081
54.43901
55.04287
57.12335
60.07079
63.26649
66.04332
67.79513
67.98689
66.28069
62.55412
56.88636
49.50824
40.70963
30.79474
20.06808
8.861507
-2.460716
-13.53825
-24.04906
-33.81906
-42.88165
-51.55676
-60.44599
-70.31133
-81.73883
-94.70486
-108.2171
-120.1862
-127.8269
-128.3695
-119.9441
-102.2393
-76.65325
-45.95218
-13.51692
17.40086
44.29289
65.56042
80.52577
89.16987
91.97577
89.75986
83.57597
74.68433
64.45079
54.26484
45.38245
38.71928
34.73514
33.35688
34.10852
36.30156
39.19617
42.1658
44.72548
46.43831
46.89571
45.67132
42.37994
36.78893
28.95337
19.18284
8.064617
-3.702728
-15.45295
-26.67954
-37.11355
-46.79226
-55.97452
-65.13568
-74.83548
-85.46951
-96.98888
-108.5897
-118.6466
-124.9143
-125.0958
-117.5249
-101.7925
-78.97853
-51.40266
-22.062
6.093746
30.76337
50.51317
64.79199
73.6785
77.66339
77.48363
74.07946
68.59827
62.22045
56.04689
50.90169
47.17854
44.87205
43.6953
43.28622
43.33621
43.64188
43.98456
44.03835
43.32595
41.26482
37.35883
31.36445
23.41292
14.04031
4.04081
-5.781433
-14.87135
-23.08124
-30.76649
-38.58594
-47.29501
-57.33865
-68.51196
-79.68988
-88.91511
-93.72589
-91.79853
-81.72476
-63.44216
-38.43993
-9.341965
20.76084
49.03035
73.37706
92.59689
106.2697
114.437
117.5368
116.3577
112.0445
106.1021
100.1491
95.60028
93.38145
93.78812
96.50362
100.998
106.6786
113.0615
119.7279
126.1656
131.6928
135.4883
136.7625
134.9253
129.8208
121.7273
111.2587
99.2363
86.32101
72.82578
58.52441
42.67245
24.25394
2.471191
-22.63477
-49.83548
-76.60626
-99.66907
-115.7735
-122.5958
-119.4248
-107.3857
-89.11377
-68.1019
-47.91055
-31.40799
-20.49731
-15.96857
-17.79443
-25.43445
-38.12225
-54.98553
-74.95685
-96.65741
-118.2661
-137.7202
-153.0134
-162.738
-166.3729
-164.3276
-157.581
-147.1848
-133.9025
-118.3196
-101.2854
-84.30841
-69.67596
-59.87671
-56.69458
-60.44659
-69.73541
-81.92743
-93.98608
-103.2026
-107.5746
-105.9549
-98.03723
-84.42493
-66.74835
-47.39313
-28.85913
-12.80731
0.7168579
13.37708
27.82709
46.53424
70.73438
99.87335
131.9428
164.2266
194.1155
219.5999
239.393
252.694
259.0447
258.071
249.4134
232.8599
208.5431
177.2219
140.4498
100.5216
60.09784
21.65533
-13.07648
-43.37708
-69.40509
-91.81403
-111.327
-128.533
-143.9791
-158.4364
-172.9101
-188.4359
-205.5458
-223.7674
-241.5372
-256.613
-266.7494
-270.4765
-267.5648
-258.9307
-246.3073
-231.7071
-217.026
-203.8724
-193.3348
-185.7309
-180.3759
-175.4344
-168.1554
-155.6132
-135.7231
-108.1942
-74.92438
-39.58295
-6.49292
20.55658
39.22174
48.77667
49.64978
42.87347
29.76276
11.84406
-9.055908
-30.99567
-52.43677
-72.72125
-92.23163
-111.9343
-132.4724
-153.2264
-172.1637
-186.3603
-193.1989
-191.4236
-181.5663
-165.6635
-146.3825
-126.1512
-106.586
-88.47919
-72.06558
-57.43616
-44.88538
-34.96799
-28.40965
-25.82008
-27.29701
-32.15686
-38.80708
-44.86032
-47.60629
-44.58499
-34.11961
-15.70251
9.948523
41.06514
75.19101
109.5698
141.5518
168.9429
190.1674
204.3986
211.5348
212.0837
207.0471
197.7602
185.7499
172.6293
159.9007
148.7302
139.7236
132.8463
127.5162
122.9144
118.3309
113.3759
107.9868
102.2904
96.37906
90.19897
83.55069
76.20282
67.9581
58.60492
47.86163
35.43542
21.27887
5.963196
-8.938049
-20.94849
-27.19263
-25.30145
-14.2605
5.115356
30.4198
58.31836
85.45801
109.1683
127.742
140.373
146.8828
147.4885
142.6982
133.3207
120.4977
105.6407
90.23065
75.62573
62.85852
52.52582
44.81335
39.55322
36.29871
34.42267
33.22791
32.00385
30.159
27.33038
23.3764
18.35602
12.44397
5.813416
-1.483154
-9.578308
-18.83331
-29.72217
-42.55597
-57.0625
-71.995
-85.02112
-93.05255
-93.11133
-83.31952
-63.68585
-36.2002
-4.312256
28.09686
57.70111
82.31952
100.9674
113.4845
120.1226
121.2507
117.353
109.1134
97.53387
83.88159
69.56671
55.89526
43.88623
34.15216
26.83972
21.67542
18.09924
15.47272
13.21625
10.95361
8.513184
5.827576
2.803284
-0.7459106
-5.124878
-10.71576
-17.86566
-26.82928
-37.65607
-49.95886
-62.72778
-74.18671
-81.95209
-83.52411
-76.98322
-61.74536
-38.87115
-10.87476
18.93811
47.32129
71.81934
91.00604
104.3789
112.0201
114.2382
111.4792
104.3575
93.7583
80.80157
66.81683
53.08514
40.64618
30.11499
21.68652
15.17676
10.17719
6.200745
2.780212
-0.4309692
-3.686768
-7.187378
-11.13287
-15.75018
-21.26428
-27.87421
-35.74695
-44.98981
-55.64166
-67.56226
-80.18188
-92.22144
-101.6711
-106.0116
-102.8932
-90.93439
-70.37305
-43.13104
-12.36841
18.38348
46.13922
68.95062
85.97266
97.23053
103.1447
104.2332
101.0532
94.21814
84.52014
72.94952
60.62885
48.6535
37.92249
28.95142
21.82532
16.25195
11.70728
7.6922
3.860535
0.07312012
-3.670105
-7.364685
-11.13629
-15.21381
-19.95898
-25.74658
-32.93268
-41.78217
-52.38007
-64.38818
-76.81653
-87.91217
-95.32214
-96.59317
-89.97647
-75.03018
-52.9281
-26.20328
1.940063
28.47568
51.18753
68.86337
81.1843
88.36807
90.84955
89.13306
83.80838
75.63663
65.54581
54.55859
43.64902
33.57108
24.80447
17.50458
11.55426
6.646515
2.409943
-1.483246
-5.245605
-8.952576
-12.61526
-16.25641
-20.03909
-24.26178
-29.34857
-35.71738
-43.677
-53.25977
-64.02872
-74.98712
-84.53659
-90.6839
-91.41183
-85.29242
-72.01566
-52.59039
-29.17703
-4.497803
18.85959
38.96808
54.75037
65.7991
72.0936
73.74933
71.0462
64.53268
55.20883
44.39619
33.5148
23.75089
15.7296
9.46283
4.502029
0.2852325
-3.679672
-7.534729
-11.18948
-14.46976
-17.28183
-19.77249
-22.30296
-25.33958
-29.36862
-34.85577
-42.08955
-51.09239
-61.40428
-71.85272
-80.61845
-85.54492
-84.74139
-77.19124
-63.16846
-44.19978
-22.57732
-0.7635574
19.20943
35.96323
48.75906
57.28418
61.42771
61.27592
57.16331
49.76675
40.15257
29.65195
19.53565
10.74249
3.68626
-1.787571
-6.18803
-10.07597
-13.81617
-17.45585
-20.7913
-23.61347
-25.91398
-27.96072
-30.33826
-33.79528
-39.01989
-46.39025
-55.75466
-66.22816
-76.25439
-83.80783
-86.83284
-83.82913
-74.24461
-58.69553
-38.79624
-16.72923
5.262403
25.27854
41.9748
54.54725
62.58482
65.99471
64.96676
59.99767
51.96545
42.06563
31.62166
21.86258
13.60391
7.062164
1.950436
-2.323376
-6.295101
-10.21527
-13.9542
-17.21774
-19.7769
-21.71413
-23.46823
-25.75201
-29.35191
-34.92599
-42.75713
-52.55864
-63.33436
-73.33949
-80.39754
-82.31759
-77.57024
-65.81432
-48.0266
-26.30029
-3.21101
18.82696
38.05316
53.45485
64.65591
71.69937
74.77398
74.17561
70.31955
63.80005
55.44007
46.19993
37.08265
28.89275
22.11073
16.77738
12.58402
9.026428
5.621284
2.089134
-1.617638
-5.408569
-9.193733
-13.01514
-17.11629
-21.83163
-27.56345
-34.675
-43.43327
-53.84576
-65.4491
-77.1002
-86.978
-92.86936
-92.67616
-85.10562
-70.12036
-49.04269
-24.17666
1.743034
26.1982
47.28976
63.89263
75.54709
82.32628
84.63998
83.14645
78.67206
72.09643
64.25198
55.84994
47.48111
39.58959
32.53601
26.59176
21.91229
18.46675
16.00367
14.04297
11.97101
9.202095
5.339272
0.2814331
-5.749046
-12.35364
-19.08612
-25.63928
-31.96201
-38.26306
-45.01352
-52.75739
-61.8498
-72.13628
-82.68037
-91.73777
-97.06521
-96.50346
-88.68237
-73.51671
-52.32053
-27.41035
-1.523026
22.8187
43.74637
60.13742
71.54184
78.01399
80.01198
78.33499
73.99535
68.06859
61.46404
54.78734
48.35524
42.23325
36.45505
31.12929
26.43687
22.62396
19.84274
18.04143
16.88641
15.7942
14.04547
10.95309
6.109467
-0.463974
-8.296509
-16.63501
-24.72629
-32.07913
-38.66368
-44.91125
-51.52789
-59.21349
-68.28194
-78.35997
-88.24536
-96.05513
-99.62726
-97.10228
-87.54988
-71.28688
-49.82625
-25.48082
-0.7556763
22.151
41.64517
56.78365
67.14618
72.72577
73.84091
71.16116
65.65532
58.51736
50.91203
43.76633
37.60127
32.50642
28.28804
24.65874
21.44598
18.65117
16.39076
14.72124
13.52338
12.44
10.90405
8.347153
4.349106
-1.207352
-8.084854
-15.76964
-23.66251
-31.26889
-38.38181
-45.17232
-52.09152
-59.73022
-68.49146
-78.31831
-88.44209
-97.32886
-102.9578
-103.3269
-97.05267
-83.82265
-64.59467
-41.3096
-16.40875
7.780289
29.44876
47.43135
61.09491
70.20668
74.81308
75.21858
72.02754
66.16055
58.7377
50.89096
43.54784
37.27689
32.25122
28.36252
25.35135
22.99706
21.15761
19.7699
18.77206
17.95125
16.92612
15.16917
12.15903
7.535339
1.286621
-6.250198
-14.46661
-22.64699
-30.23695
-37.01372
-43.14104
-49.13585
-55.69876
-63.49036
-72.83284
-83.46608
-94.33252
-103.6274
-109.1341
-108.7691
-101.21
-86.33922
-65.3513
-40.4008
-14.06754
11.23576
33.64989
52.04568
65.90079
75.10309
79.78819
80.28439
77.13989
71.1828
63.4948
55.28111
47.66957
41.46643
37.02415
34.23318
32.68019
31.79079
31.07043
30.20956
29.07263
27.63828
25.92581
23.85019
21.19591
17.6588
12.93681
6.921326
-0.2440796
-8.125626
-16.19257
-24.00142
-31.35506
-38.36075
-45.30135
-52.54253
-60.40057
-69.12451
-78.79578
-89.15172
-99.37119
-107.9276
-112.7179
-111.5771
-102.9683
-86.59372
-63.65367
-36.55807
-8.228638
18.60005
41.95422
60.74338
74.57994
83.4919
87.71617
87.65388
83.92607
77.46297
69.39594
60.92773
53.07692
46.5181
41.54425
38.09921
35.92386
34.65901
33.96024
33.50908
33.07922
32.47364
31.53268
30.11411
28.03755
25.06848
20.97022
15.58734
8.884109
1.081779
-7.422852
-16.11726
-24.57004
-32.52993
-39.99611
-47.19307
-54.46497
-62.23449
-70.82439
-80.31556
-90.32856
-99.86314
-107.2672
-110.4906
-107.5787
-97.28775
-79.59574
-55.82661
-28.39256
-0.1689682
26.16729
48.63687
66.15877
78.45395
85.76465
88.62224
87.66399
83.59883
77.22698
69.43622
61.20042
53.39401
46.70073
41.49306
37.81345
35.47012
34.11912
33.4225
33.06343
32.81119
32.42845
31.68116
30.3048
27.98762
24.48692
19.6286
13.43378
6.106823
-1.958141
-10.28539
-18.42292
-26.08989
-33.2414
-40.07861
-47.00832
-54.51008
-63.05273
-72.8769
-83.75188
-94.76548
-104.2634
-110.0992
-110.106
-102.7656
-87.72855
-66.01437
-39.79326
-11.8217
15.21835
39.20272
58.77391
73.3182
82.74445
87.30331
87.48582
83.9576
77.61722
69.50255
60.6989
52.19832
44.6935
38.50989
33.65901
29.96796
27.22833
25.35181
24.29905
23.99612
24.22435
24.51036
24.1954
22.60524
19.24204
13.89244
6.785976
-1.516069
-10.2626
-18.68736
-26.28793
-32.99097
-39.16991
-45.52361
-52.87501
-61.78247
-72.24548
-83.43372
-93.71343
-100.8965
-102.7475
-97.59711
-84.88099
-65.36393
-40.93535
-14.15916
12.35546
36.42902
56.53928
71.80344
81.87946
86.79549
86.9436
83.04884
76.14764
67.44074
58.15395
49.26485
41.38755
34.74051
29.24831
24.7298
21.07848
18.36902
16.73037
16.2248
16.59
17.20802
17.16903
15.61239
11.98521
6.269825
-1.029367
-9.063086
-16.97361
-24.16578
-30.47257
-36.16223
-41.87748
-48.40034
-56.40845
-66.14011
-77.07743
-87.85155
-96.34756
-100.2009
-97.44424
-87.17346
-69.85574
-47.20217
-21.64333
4.290249
28.48655
49.44601
66.22039
78.24901
85.23745
87.22502
84.66661
78.50404
70.0564
60.72406
51.71053
43.78723
37.23749
31.97858
27.78487
24.48012
22.04753
20.6305
20.33747
21.04079
22.27946
23.26637
23.11758
21.17225
17.22428
11.59692
5.0227
-1.66613
-7.8501
-13.31763
-18.30701
-23.40207
-29.3009
-36.62663
-45.58981
-55.71251
-65.61189
-73.05497
-75.39924
-70.35552
-56.89129
-35.79153
-9.709458
17.47644
41.76573
60.07671
70.85851
74.0683
70.72551
62.2302
50.02909
35.44296
19.80762
4.557609
-8.914961
-19.51938
-26.74663
-30.77593
-32.30257
-32.11302
-30.82157
-28.68722
-25.70396
-21.90667
-17.62746
-13.56962
-10.66531
-9.771221
-11.311
-15.06512
-20.30627
-26.01421
-31.32347
-35.85445
-39.84874
-44.03141
-49.35192
-56.56186
-65.85559
-76.60605
-87.27187
-95.64402
-99.30864
-96.28944
-85.6766
-67.8846
-44.63121
-18.45622
7.938959
32.28499
52.9967
69.223
80.6356
87.22301
89.16264
86.88484
81.1048
72.82748
63.26418
53.56768
44.61285
36.88326
30.53179
25.50645
21.76044
19.32986
18.19927
18.19035
18.80917
19.23314
18.56034
16.07474
11.49218
5.089905
-2.462509
-10.32599
-17.80762
-24.58863
-30.80506
-37.01442
-44.03355
-52.60933
-63.03024
-74.82189
-86.55305
-95.95874
-100.4776
-97.93806
-87.25726
-68.89246
-44.70344
-17.43416
10.0337
35.26637
56.6272
73.20686
84.56355
90.57867
91.42159
87.65784
80.33769
70.85529
60.71411
51.16112
42.93544
36.24571
30.92749
26.70168
23.42458
21.11292
19.82597
19.52695
19.88629
20.23962
19.73476
17.57642
13.29958
6.985718
-0.7757721
-9.1091
-17.17471
-24.47603
-31.02255
-37.31387
-44.08426
-52.11415
-61.8481
-73.08904
-84.79465
-95.03572
-101.3126
-101.2065
-93.10286
-76.80786
-53.71481
-26.42863
1.954208
28.66949
51.75946
70.13365
83.31609
91.22012
93.92392
91.78789
85.60048
76.58231
66.23279
56.00293
46.95148
39.5666
33.83383
29.47519
26.1718
23.79565
22.37863
21.94633
22.31976
23.00259
23.18962
21.97055
18.67361
13.07228
5.528351
-3.130966
-11.90584
-20.00783
-27.0498
-33.24416
-39.29944
-46.14314
-54.56833
-64.81238
-76.24005
-87.23409
-95.46629
-98.42741
-94.19479
-82.01228
-62.58992
-37.88631
-10.63351
16.38472
40.7991
60.97391
75.97577
85.49825
89.70673
89.12553
84.58444
77.16873
68.13896
58.71259
49.92085
42.43791
36.53436
32.12599
28.92726
26.61046
24.9368
23.79039
23.08479
22.63689
22.10454
20.95329
18.60654
14.57745
8.728409
1.313263
-7.018921
-15.46689
-23.3396
-30.32303
-36.58365
-42.68988
-49.38046
-57.25906
-66.54237
-76.79274
-86.85455
-94.8746
-98.66245
-96.20149
-86.26283
-68.92473
-45.64604
-18.96907
8.215256
33.32304
54.49934
70.77687
81.82686
87.72733
88.82811
85.73491
79.32771
70.81236
61.55183
52.76781
45.36345
39.73024
35.7585
32.95148
30.74173
28.65118
26.56323
24.63948
23.16214
22.25691
21.66769
20.74815
18.63351
14.64078
8.550797
0.726593
-8.029739
-16.78853
-24.84299
-31.94815
-38.33524
-44.5713
-51.37379
-59.32338
