1652989040.9156241
64
413.9202
381.4099
345.449
313.9155
289.4037
269.3996
248.973
224.3024
194.8409
163.1287
132.7424
105.8517
82.07524
58.96332
33.77623
5.038147
-26.86189
-60.5611
-95.2224
-131.1794
-169.2325
-208.8004
-246.3782
-275.4185
-288.1708
-278.7476
-245.5427
-191.6657
-123.2155
-46.71594
32.73218
111.209
184.5968
247.2371
292.337
314.0012
309.8964
282.8205
240.0048
190.574
142.3563
99.85846
63.81909
32.47571
3.387634
-25.22223
-54.19061
-83.92206
-114.7516
-147.021
-180.4404
-213.7082
-244.5393
-270.3663
-289.4178
-301.2751
-306.6788
-306.9285
-303.2191
-296.5411
-288.0246
-279.084
-271.0677
-264.3336
-257.5281
-248.02
-233.2466
-212.4809
-187.6715
-162.698
-141.3834
-125.5956
-114.6178
-105.9161
-96.90631
-86.30249
-74.37665
-62.17395
-50.37622
-38.7511
-26.34436
-12.35663
3.079346
18.62469
32.25104
42.03339
46.95648
47.30164
44.54846
40.89038
38.43304
38.64417
41.84137
47.48627
54.5459
62.07697
69.52594
76.56903
82.82935
87.5719
89.82605
88.78491
84.38989
77.60242
70.16608
63.94263
60.21844
59.13422
59.70905
60.3205
59.35663
55.93561
50.16449
43.03052
35.88641
29.76239
24.92999
20.89777
16.89886
12.58411
8.515137
6.208923
7.473938
13.66754
24.95825
40.23541
57.45697
74.44904
89.4704
101.4703
110.0092
114.9317
116.1147
113.4226
106.8551
96.74243
83.90723
69.57916
55.19794
42.11737
31.30841
23.22461
17.72607
14.27875
12.13849
10.54999
8.84198
6.446045
2.885132
-2.099854
-8.437561
-15.47278
-22.03888
-26.84467
-28.98663
-28.58685
-26.95563
-26.42432
-29.64282
-38.70099
-54.36584
-75.5863
-99.57471
-122.3018
-139.3777
-147.2589
-144.4839
-132.3154
-114.6497
-96.9942
-84.69153
-81.11261
-86.38141
-97.24597
-108.1591
-113.4022
-109.1927
-95.12421
-74.22162
-51.60596
-32.37671
-19.72253
-14.27655
-14.5321
-18.23138
-23.66144
-30.04999
-37.08179
-44.12988
-49.85822
-52.65265
-51.67181
-47.46594
-42.03845
-37.89844
-36.83282
-39.09467
-43.45807
-48.04681
-51.35736
-52.99805
-53.75165
-55.09814
-58.46222
-64.60419
-73.20776
-82.81091
-91.12128
-95.5387
-93.85593
-84.93246
-69.06778
-47.98749
-24.39612
-1.239136
19.08392
35.3045
47.45541
56.51801
63.92029
70.70917
77.05811
82.27539
85.2171
85.02808
81.6452
75.91095
69.21054
62.91974
57.94617
54.61905
52.76266
52.00027
51.78244
51.45367
50.2169
47.13754
41.30476
32.09625
19.47223
4.149368
-12.33395
-27.89636
-40.50632
-48.89604
-53.16434
-54.85516
-56.42239
-60.17281
-67.20724
-76.77876
-86.40328
-92.62179
-92.17133
-82.86426
-64.17061
-37.20506
-4.308167
31.55344
67.37856
100.5711
129.1203
151.5838
166.9676
174.8285
175.393
169.6898
159.5516
147.246
134.8951
124.0258
115.3177
108.6881
103.6045
99.37807
95.38394
91.07613
85.92188
79.44148
71.31004
61.50381
50.27834
38.1189
25.49293
12.70847
-0.2193527
-13.41833
-27.09991
-41.3337
-56.04317
-71.01593
-86.05846
-101.057
-115.8542
-129.8391
-141.6003
-148.9132
-149.1419
-140.3109
-122.036
-95.91927
-65.22495
-33.79179
-4.900284
19.49202
38.73546
53.03471
62.76355
68.21042
69.57845
67.29144
62.05966
54.80333
46.30612
37.04288
27.14467
16.71553
6.20285
-3.416885
-10.80251
-14.7603
-14.87964
-11.86807
-7.396332
-3.47879
-1.702988
-2.597244
-5.703506
-10.12619
-15.15498
-20.70792
-27.20847
-35.23129
-45.00912
-56.42166
-69.14322
-82.88913
-97.3504
-111.8311
-124.8415
-134.0919
-137.0082
-131.6341
-117.4791
-95.85199
-69.50854
-41.79022
-15.64899
7.018341
25.69086
40.98114
54.19986
66.77213
79.69711
93.25708
106.9635
119.8763
131.0236
139.8078
146.0838
150.0818
152.1281
152.4874
151.2602
148.3897
143.743
137.1892
128.6898
118.4649
107.0699
95.36255
84.24957
74.30383
65.42972
56.86475
47.5343
36.55045
23.64871
9.209259
-6.020477
-21.26334
-35.82047
-48.83865
-58.96683
-64.30942
-62.87778
-53.42322
-36.20047
-13.17645
12.57748
37.93256
60.603
79.3197
93.2785
101.3113
101.6661
92.60342
73.71048
46.98361
16.82349
-11.25824
-32.68533
-45.42783
-50.41797
-50.52979
-48.83228
-47.21674
-45.91409
-44.13812
-41.08197
-36.71014
-31.90341
-27.99805
-26.12781
-26.75482
-29.5921
-33.81204
-38.52975
-43.12289
-47.49585
-52.02344
-57.28494
-63.69403
-71.23972
-79.37494
-87.16251
-93.55746
-97.61276
-98.50397
-95.52151
-87.98962
-75.32639
-57.30676
-34.29901
-7.386719
21.56491
50.22055
76.15945
97.40176
112.8025
122.1591
126.1107
125.6348
121.7192
114.9739
105.7307
94.23352
80.97433
66.79507
52.78397
39.99866
29.1868
20.69534
14.43549
10.06229
6.982727
4.447083
1.629089
-2.20285
-7.412415
-13.89313
-21.12418
-28.52921
-35.84216
-43.29523
-51.54651
-61.07776
-71.69739
-82.11084
-90.1521
-93.35043
-89.71585
-78.32642
-59.49213
-34.64377
-5.863556
24.4624
54.00842
80.70282
103.0013
119.9503
131.1745
136.7237
136.7182
131.1284
119.7903
102.7081
80.54758
54.98212
28.60321
4.317902
-15.38379
-29.10132
-36.65909
-38.85672
-36.86264
-31.69931
-24.03021
-14.3114
-3.098022
8.649963
19.53668
28.04321
32.93628
33.61386
30.22681
23.38644
13.73364
1.629486
-12.84232
-29.57077
-47.92421
-66.58981
-83.89944
-98.55525
-110.1597
-119.3782
-127.2175
-134.1412
-139.3153
-140.7376
-136.0147
-123.6367
-103.7682
-78.32379
-50.2692
-22.58516
2.544724
24.00647
41.49539
55.01826
64.5423
69.90074
71.06627
68.43358
62.99973
56.33656
50.22432
46.17552
45.01805
46.71994
50.53377
55.40788
60.35358
64.73344
68.26079
70.74861
71.95407
71.40535
68.6216
63.33029
55.89583
47.35519
39.22052
32.9832
29.48782
28.64821
29.34718
29.94675
28.7538
24.58797
16.92049
5.940414
-7.646011
-22.67841
-37.5762
-50.48711
-59.46859
-62.89176
-59.91731
-50.79026
-36.82629
-20.10003
-2.896873
12.81267
25.70146
35.17175
41.17681
43.95573
43.89222
41.50443
37.58584
33.2383
29.65191
27.70144
27.50287
28.23935
28.49311
27.04275
23.48217
18.55971
13.88408
11.02563
10.75488
12.66716
15.38503
17.23402
17.02892
14.39027
9.680538
3.589924
-3.375526
-11.10495
-19.86501
-30.00848
-41.74908
-55.06848
-69.81332
-85.85152
-103.0871
-121.1635
-139.1268
-155.2244
-167.0874
-172.4408
-169.8986
-159.6192
-143.2185
-123.2054
-102.0748
-81.63471
-62.8494
-46.15645
-31.90802
-20.59723
-12.75703
-8.495789
-7.286499
-7.908936
-8.861343
-8.880447
-7.275406
-3.982742
0.6729431
6.214211
12.17303
18.06955
23.36534
27.43225
29.7899
30.24554
28.93483
26.23708
22.45808
17.74478
12.06329
5.440071
-1.861595
-9.310272
-16.33374
-22.67312
-28.63343
-35.02791
-42.83742
-52.81384
-65.20744
-79.62424
-95.0792
-110.0172
-122.4002
-129.9227
-130.4282
-122.5145
-105.9959
-82.10738
-53.15879
-21.92735
9.026991
37.75948
63.02051
84.04568
100.3443
111.6092
117.8224
119.3938
117.1956
112.5681
107.1539
102.6738
100.5687
101.642
105.7118
111.6014
117.4866
121.4443
122.1586
119.2378
113.1015
104.5301
94.17256
82.26022
68.78516
53.85824
38.06278
22.42055
8.133327
-3.916153
-13.46703
-20.92529
-27.09053
-32.85701
-38.83719
-45.25404
-51.97015
-58.51658
-64.19748
-68.05602
-69.04037
-66.16409
-58.87319
-47.49815
-33.44551
-19.04145
-6.901766
0.8880978
3.588661
1.983381
-2.016539
-6.256671
-9.285546
-10.75254
-11.26836
-11.72688
-12.67595
-13.9864
-15.18445
-16.01998
-16.94261
-18.99067
-23.07297
-29.25275
-36.23024
-41.81619
-43.79897
-41.09334
-34.24933
-25.19781
-16.36888
-9.702181
-6.245762
-6.159836
-9.305206
-15.52438
-24.71197
-36.48577
-50.03408
-64.2216
-78.11241
-91.49602
-104.808
-118.4332
-131.675
-142.1622
-146.0746
-139.4519
-119.7639
-87.06657
-44.10668
4.676056
54.54788
101.5404
142.9154
176.8626
202.1641
218.0839
224.6131
222.6835
214.0622
200.7746
184.4717
166.0672
145.8847
124.2081
101.7124
79.60619
59.30422
41.96527
28.12975
17.67183
10.02084
4.458878
0.3301239
-2.879654
-5.527985
-7.810387
-9.663239
-10.85326
-11.14247
-10.50433
-9.366158
-8.505844
-8.778221
-10.85664
-15.04025
-21.39265
-30.00864
-41.04901
-54.60631
-70.13747
-85.99772
-99.41969
-107.0597
-106.0826
-95.24497
-75.48653
-49.70243
-21.75841
4.658405
26.97374
44.00854
55.68034
62.39422
64.49813
62.13413
55.46532
45.04922
32.12113
18.48732
6.08754
-3.659237
-10.19631
-13.88362
-15.64053
-16.23675
-16.02417
-14.77926
-12.10511
-7.951545
-2.935513
1.756244
4.740383
4.844311
1.342418
-6.056795
-17.12868
-31.04964
-46.40759
-61.41604
-74.55306
-85.30521
-94.57066
-104.2651
-116.2012
-130.6782
-145.7761
-157.7311
-162.3867
-157.0299
-141.4233
-117.7948
-89.70731
-60.71443
-33.30951
-8.716782
12.70962
31.04274
46.33536
58.5051
67.47755
73.31579
76.19328
76.30063
73.75529
68.5448
60.64849
50.21884
37.83247
24.5351
11.69426
0.6661453
-7.472374
-12.18404
-13.42451
-11.55312
-7.198128
-1.168762
5.567711
12.04698
17.39714
21.09015
22.95634
22.9949
20.99283
16.30946
7.879959
-5.233444
-23.21173
-44.96222
-68.02289
-89.00143
-104.3424
-111.1242
-107.725
-94.11487
-71.74205
-43.25293
-11.88756
19.03046
46.62924
68.87151
84.68936
93.92314
97.13678
95.36121
89.84645
81.94191
73.03864
64.48349
57.50626
53.10104
51.80963
53.63208
58.0563
64.18729
70.95108
77.35757
82.56186
85.99625
87.34891
86.51126
83.52298
78.47699
71.4537
62.56473
52.01605
40.15823
27.55188
14.86514
2.783417
-8.229034
-18.0795
-27.14029
-36.18439
-46.17017
-57.8132
-71.07556
-84.81119
-96.75644
-104.0216
-103.9983
-95.28339
-78.24609
-54.88919
-28.1951
-1.171295
23.89459
45.67477
63.60553
77.4147
86.7739
91.29495
90.75626
85.49002
76.58652
65.75449
54.85095
45.39529
38.14185
33.02628
29.35847
26.23863
22.93805
19.10439
14.83463
10.59016
6.948013
4.330658
2.758804
1.655167
-0.08732605
-3.774124
-10.45108
-20.46233
-33.29895
-47.76672
-62.39771
-75.91725
-87.58954
-97.27513
-105.4088
-112.7113
-119.9645
-127.6165
-135.4428
-142.3673
-146.5477
-145.882
-138.6968
-124.4446
-104.0449
-79.63914
-53.9054
-29.13892
-6.539047
13.96159
33.21133
52.05371
70.57387
87.86446
102.375
112.631
117.85
118.1599
114.4081
107.6306
98.82416
88.91284
78.95078
70.19623
63.91278
60.90506
61.07037
63.28085
65.70956
66.48257
64.29654
58.77484
50.35306
39.96683
28.57291
16.80688
4.903107
-7.191803
-19.63663
-32.45752
-45.5538
-58.75247
-71.9227
-85.05722
-98.25745
-111.5917
-124.9768
-137.9941
-149.7578
-158.7727
-162.9409
-159.9005
-147.7639
-125.919
-95.62946
-59.9408
-22.87256
11.81244
41.64844
65.79755
84.59772
98.71021
108.483
113.8675
114.8018
111.6931
105.6283
98.0578
90.31628
83.22675
77.08347
71.91766
67.83334
65.05878
63.78162
63.85663
64.66922
65.29971
64.83987
62.76984
58.97406
53.62479
46.79391
38.40369
28.25809
16.35428
3.083527
-10.77728
-24.30841
-36.84424
-48.19159
-58.68295
-68.91879
-79.49002
-90.71164
-102.4724
-114.1328
-124.4622
-131.6697
-133.6006
-128.2766
-114.5298
-92.58322
-64.22162
-32.45593
-0.70578
28.08679
52.07419
70.62909
83.94952
92.54413
96.83966
97.14084
93.88223
87.81155
80.09802
72.05276
64.77594
58.84589
54.27487
50.7262
47.82501
45.38089
43.36041
41.73322
40.25531
38.43048
35.74298
31.85306
26.82248
20.99133
14.82193
8.542542
2.051483
-5.036957
-13.10925
-22.25931
-32.15302
-42.13239
-51.44611
-59.69174
-67.02225
-74.17975
-82.27484
-92.31836
-104.6686
-118.6594
-132.4668
-143.3936
-148.4723
-145.2682
-132.5591
-110.7586
-81.8486
-48.92496
-15.46863
15.43839
41.66873
62.23236
77.12607
86.89992
92.30174
93.96007
92.50781
88.67184
83.47137
78.12149
73.76239
71.09106
70.17342
70.44954
71.03473
71.04828
69.89607
67.36978
63.58932
58.86797
53.55144
47.9129
42.09395
36.07207
29.75398
23.03627
15.87445
8.372833
0.7097168
-6.960556
-14.62799
-22.4368
-30.6517
-39.53275
-49.24147
-59.88472
-71.56639
-84.46274
-98.71114
-114.0752
-129.5794
-143.2298
-152.2286
-153.6199
-145.3072
-126.9308
-100.2552
-68.79153
-36.78465
-7.940918
15.44525
32.76172
44.68713
52.41014
57.02988
59.1886
59.13005
57.00735
53.1431
48.18155
43.0802
38.90146
36.50171
36.3008
38.08165
41.0374
44.03783
45.96822
46.12106
44.32306
40.91893
36.4823
31.51437
26.21992
20.54066
14.23827
7.124451
-0.8825531
-9.655106
-18.98018
-28.58356
-38.18179
-47.54987
-56.55521
-65.29425
-74.24487
-84.17682
-95.78168
-109.164
-123.2004
-135.3858
-142.2473
-140.3661
-127.5984
-104.0098
-71.95322
-35.27615
1.949402
36.72092
67.57526
94.32898
117.2149
136.1023
150.3065
158.9439
161.6237
158.9189
152.3493
143.8359
135.0447
126.9495
119.8075
113.5269
107.9962
103.1912
99.08109
95.39624
91.46686
86.31866
78.96228
68.75504
55.68217
40.40323
24.1452
8.249924
-6.241592
-18.95645
-30.19766
-40.66197
-51.07347
-61.88322
-73.25728
-85.30817
-98.24542
-112.2601
-127.1529
-141.8353
-154.1457
-161.2472
-160.4154
-149.9547
-129.7896
-101.4151
-67.53558
-31.46545
3.305252
33.41374
55.9122
68.71925
71.14914
64.25095
50.66003
33.92067
17.45607
3.615356
-6.720016
-13.90306
-18.81921
-22.11635
-23.83795
-23.50476
-20.72839
-15.82681
-10.11279
-5.57373
-4.165421
-6.84845
-13.12779
-21.14044
-28.32452
-32.28403
-31.55183
-25.98189
-16.70297
-5.84964
3.899078
9.870041
10.04625
3.732895
-8.025192
-22.48363
-35.81186
-44.12451
-44.59569
-36.13199
-19.45758
3.372498
29.8228
57.77916
86.03763
114.123
141.6494
167.3755
188.8159
202.6129
205.5577
195.7236
173.264
140.5463
101.6028
61.25732
24.17932
-5.762299
-26.07439
-35.89441
-36.12381
-29.30278
-19.12732
-9.689545
-4.559219
-6.13398
-15.32587
-31.71328
-53.79394
-79.4112
-106.155
-131.852
-154.9264
-174.7068
-191.4187
-205.8348
-218.7219
-230.2946
-239.7359
-245.3907
-245.4939
-238.9454
-225.8998
-207.7282
-186.4065
-163.7319
-140.6382
-117.1765
-92.85886
-67.05547
-39.28165
-9.223358
23.25874
57.95648
94.05713
130.0833
164.1589
194.4496
219.5031
238.1922
249.4178
251.8473
244.2157
226.0795
198.7666
165.7598
132.1357
103.2
82.95567
73.12706
73.16118
80.9467
93.94365
110.061
128.0632
147.5092
168.3199
190.1761
212.0129
231.8496
246.8651
254.1332
251.6588
239.2587
218.8944
193.9618
167.965
142.8748
118.4837
92.4632
61.70984
24.26542
-19.44551
-66.89048
-114.8733
-160.9127
-203.6596
-241.9103
-274.0735
-298.6399
-315.1914
-325.6862
-333.976
-343.747
-355.0651
-362.4319
-356.3611
-328.9961
-280.2068
-219.6902
-163.9998
-129.3123
-123.9071
-143.7682
-173.9034
-194.8988
-191.5287
-159.3476
-104.7897
-41.01017
19.19521
68.45534
106.1824
135.0145
158.5383
182.1168
206.0931
227.2718
240.4406
244.2419
240.5056
231.8267
219.1385
200.7757
174.3168
138.6379
96.43843
53.85008
18.01892
-7.030174
-22.32068
-33.16724
-46.96068
-68.57753
-98.27023
-131.8276
-163.6102
-189.1207
-206.352
-218.0179
-224.9213
-227.0826
-224.5265
-218.3529
-210.489
-203.137
-198.0829
-196.1208
-195.7282
-194.8806
-191.792
-185.0768
-174.4981
-160.9931
-146.3772
-132.5702
-120.8306
-111.4307
-103.4824
-95.67848
-86.22012
-74.02179
-59.17911
-42.94366
-27.15555
-13.36929
-2.236176
6.755493
14.66684
23.81171
35.8302
51.03021
68.14252
84.85736
99.08298
109.6444
116.8856
121.952
128.1562
138.1713
153.0961
172.1636
193.0841
213.5632
231.9346
248.137
263.2415
282.029
310.1805
352.994
413.3085
489.6672
576.1403
662.8625
739.5605
781.2333
771.1323
704.6479
592.3774
455.8392
317.563
193.2152
88.20898
1.742645
-69.43277
-126.0356
-168.8232
-200.1019
-224.4431
-247.147
-267.9474
-287.0251
-301.2183
-306.662
-300.2946
-283.7
-262.9595
-246.4562
-244.114
-259.0956
-288.3975
-324.4224
-359.4022
-386.9987
-404.6988
-412.5834
-411.4473
-402.4753
-386.7419
-366.124
-342.6655
-318.6207
-295.4848
-273.8026
-253.0299
-231.8217
-208.5055
-182.9979
-155.9305
-128.334
-101.6807
-77.24228
-55.78708
-37.34793
-21.35989
-7.087891
6.2323
18.96356
31.05286
42.04089
51.32861
58.54547
63.78918
67.65161
70.98083
74.67578
79.48669
85.742
93.30389
101.7225
110.5463
119.4975
128.5646
137.8994
147.6667
158.0812
169.2874
181.5784
195.4709
211.4669
229.5378
248.5646
266.2025
279.2869
284.8548
281.0364
267.6385
246.0357
218.5618
187.7455
155.7928
124.4717
95.14728
68.83893
45.95392
26.08588
8.063965
-9.581604
-27.81921
-46.49976
-64.18549
-78.68854
-87.9364
-90.90912
-88.01453
-80.87158
-71.7005
-62.4726
-54.39514
-47.59943
-41.27124
-34.0249
-24.5451
-12.28113
2.069275
16.53046
28.46777
35.62268
37.18878
34.2489
29.36072
25.38892
24.36163
26.87207
32.27423
39.53064
47.83289
56.84332
66.32782
75.66052
83.56049
88.3277
88.50299
83.51935
74.03339
61.65363
48.32062
35.52313
23.80841
12.69519
1.067322
-12.16455
-27.44714
-44.09705
-60.35864
-73.74274
-81.68408
-82.12921
-73.89288
-56.77484
-31.45294
0.5377197
36.93298
74.85199
111.2389
143.3987
169.6346
189.6003
204.2171
215.1207
223.8968
231.5266
238.2867
244.1493
249.1758
253.6828
257.8434
261.0613
261.5927
256.7787
244.0067
221.8311
190.7615
153.2269
112.7695
72.84647
35.83597
2.681274
-26.89835
-53.86899
-79.3649
-104.5867
-130.8667
-159.7246
-192.4966
-229.4453
-268.85
-306.6599
-337.178
-354.8451
-356.2199
-341.3786
-313.7968
-278.7234
-241.0844
-203.8284
-167.3718
-130.3338
-91.035
-49.0839
-6.158379
34.01166
66.52509
86.79729
91.99188
82.02935
59.65157
29.37239
-4.154673
-37.30924
-67.75568
-93.81442
-113.5733
-124.7264
-125.398
-115.5085
-97.59058
-76.17216
-56.15008
-41.05988
-32.20749
-29.23722
-31.54168
-39.45918
-54.16222
-76.06795
-103.0683
-129.9348
-149.6657
-156.0931
-146.3884
-122.1462
-88.25472
-50.50719
-13.3888
20.97691
52.42757
81.49727
108.4227
132.7512
153.4176
169.0548
178.5025
180.9871
176.6629
166.8307
153.6976
139.4099
124.9543
109.8633
93.06271
74.32243
55.29958
39.53641
31.14111
33.03578
45.81049
67.64551
95.11934
124.3324
151.6314
174.0414
189.566
197.4622
198.3754
194.1686
187.2243
179.6305
172.6535
166.6389
161.3735
156.422
151.0309
143.9252
133.3368
117.0787
93.26184
61.20523
22.10699
-20.57916
-61.64075
-95.49445
-118.1222
-128.5947
-129.8629
-128.0184
-130.205
-141.8273
-164.428
-195.1431
-228.0886
-256.6757
-275.5466
-281.314
-272.0704
-246.9082
-206.5409
-154.6638
-99.06366
-50.78748
-21.18896
-17.84247
-41.56287
-86.08856
-140.8132
-194.8995
-240.4705
-273.8333
-294.8251
-305.5154
-309.3351
-310.4575
-312.7607
-318.2209
-325.6065
-330.237
-325.7598
-307.1167
-273.1501
-227.1042
-175.1611
-123.5961
-76.43427
-34.73529
2.811096
38.5321
74.89081
114.0503
157.4554
205.0898
254.5259
300.5529
336.1478
354.6881
352.4085
329.806
291.3904
243.6044
192.3929
141.3744
91.58594
42.45959
-6.81134
-56.20959
-104.5464
-149.6246
-188.7399
-219.1473
-238.6436
-246.2078
-242.6187
-230.5026
-214.0635
-197.8458
-185.3087
-177.8192
-174.1159
-170.9813
-164.3807
-150.9157
-128.954
-99.1759
-64.37451
-28.82031
2.701904
25.92441
38.01279
38.22638
28.18579
11.63934
-6.377838
-20.80984
-28.0415
-26.86099
-18.66461
-6.500183
6.322784
17.75488
27.55954
36.95697
47.4949
59.95874
73.92285
88.18094
101.3364
112.5045
121.3829
127.9082
131.9669
133.2892
131.7634
127.8245
