1652984469.127758
64
10.74219
5.677277
3.213898
2.909119
3.935379
5.350861
6.397766
6.619095
5.865265
4.155502
1.599579
-1.700897
-5.697159
-10.38132
-15.79167
-22.05142
-29.33084
-37.78958
-47.38026
-57.60675
-67.38795
-75.07166
-78.75276
-76.75871
-68.25449
-53.61145
-34.41351
-13.09982
7.705276
25.82761
39.94778
49.57777
54.82031
56.04805
53.70316
48.31371
40.55876
31.37688
21.91042
13.31203
6.527374
2.095703
0.06236267
0.02397156
1.250687
2.862442
4.049713
4.250397
3.274307
1.243973
-1.559952
-4.850327
-8.501999
-12.61659
-17.46585
-23.40898
-30.7673
-39.6595
-49.77531
-60.18994
-69.2919
-75.02011
-75.36633
-69.02617
-55.90167
-37.2627
-15.3885
7.074341
27.73074
44.89403
57.63124
65.60387
68.87363
67.7365
62.74855
54.74144
44.84657
34.38065
24.67155
16.7975
11.36827
8.422256
7.459747
7.63382
8.032867
7.932709
6.97464
5.118134
2.566742
-0.4619446
-3.829498
-7.565598
-11.86731
-17.06979
-23.59468
-31.7312
-41.39984
-51.87094
-61.69273
-68.85522
-71.32399
-67.61928
-57.34808
-41.37053
-21.57634
-0.3839111
19.85754
37.3009
50.83246
59.97409
64.71744
65.30539
62.14093
55.80856
47.16739
37.36383
27.74002
19.57974
13.79938
10.66547
9.829254
10.43686
11.49683
12.17725
11.99014
10.79489
8.675629
5.769775
2.174744
-2.100952
-7.111542
-12.93988
-19.67996
-27.48328
-36.49901
-46.71965
-57.76042
-68.60448
-77.55145
-82.48911
-81.49207
-73.49419
-58.83249
-39.22025
-17.31299
4.041138
22.55994
36.87268
46.46637
51.33951
51.59961
47.2749
38.50998
25.89325
10.71466
-5.053467
-19.245
-30.17761
-37.25677
-41.18167
-43.64661
-46.60712
-51.50851
-58.7706
-67.72778
-76.9982
-85.1026
-91.07758
-94.86383
-97.32877
-99.85947
-103.7606
-109.5789
-116.7267
-123.5557
-127.7652
-127.0015
-119.426
-104.1942
-81.75241
-54.14255
-24.82446
2.048615
23.08075
37.12405
46.16214
54.72665
68.0
89.37491
118.6864
152.0997
183.6727
207.7625
221.1021
223.6197
217.8552
207.5023
195.9964
185.6295
177.4022
171.3508
167.0557
163.8671
160.9739
157.3056
151.4976
142.163
128.4581
110.5866
90.03894
69.19775
50.47595
35.36646
23.87753
14.66241
5.883331
-3.734772
-14.0769
-23.59521
-30.06906
-31.8093
-28.66696
-22.3331
-15.7348
-11.84708
-12.52353
-17.93716
-26.83618
-37.41101
-48.1738
-58.4162
-68.01709
-76.91873
-84.57635
-89.91324
-91.79019
-89.63724
-84.00412
-76.50742
-69.24832
-63.9584
-61.35489
-60.96439
-61.57632
-62.0401
-61.89606
-61.67221
-62.62531
-66.10593
-72.87012
-82.62601
-93.922
-104.4967
-111.7966
-113.6388
-108.6857
-96.72247
-78.63144
-56.11374
-31.33258
-6.47406
16.5502
36.22766
51.50839
61.76306
66.7449
66.62704
62.04089
54.19839
44.77765
35.7366
28.83762
25.20264
24.94272
27.13849
30.2511
32.66824
33.32828
31.96619
29.004
25.17432
21.04987
16.75406
11.95377
6.092377
-1.332458
-10.52798
-21.19806
-32.45148
-42.79617
-50.23444
-52.61539
-48.17899
-36.0798
-16.80457
7.775299
34.8187
61.13779
83.86798
100.9279
111.1635
114.2862
110.7113
101.3875
87.6976
71.36093
54.27261
38.25565
24.82367
14.95984
8.994598
6.566772
6.761414
8.299133
9.817047
10.14948
8.549622
4.80545
-0.8066711
-7.72113
-15.2612
-22.93286
-30.53284
-38.1875
-46.31482
-55.46683
-66.15009
-78.46994
-91.85162
-104.8055
-115.0372
-119.8779
-117.0448
-105.4126
-85.47601
-59.30145
-29.99081
-0.8330383
25.4429
47.01053
62.96097
73.00427
77.24704
76.12204
70.49054
61.72751
51.62112
42.08823
34.67386
30.21457
28.63647
29.1434
30.6441
32.22183
33.38934
34.04974
34.26743
33.94699
32.65842
29.74927
24.64178
17.16138
7.728821
-2.72049
-13.07788
-22.48071
-30.63736
-37.94818
-45.33072
-53.90582
-64.49283
-77.14481
-90.8291
-103.4367
-112.1597
-114.2437
-107.7505
-92.24239
-68.91846
-40.3316
-9.727966
19.75168
45.633
66.41312
81.49515
90.98795
95.47751
95.8103
93.02902
88.28668
82.74643
77.38065
72.90137
69.59982
67.43741
66.21271
65.74933
66.03137
67.16385
69.18637
71.83328
74.4678
76.1843
76.12299
73.83719
69.47659
63.67798
57.25211
50.85706
44.68433
38.54311
32.05515
24.96725
17.33829
9.497772
1.860123
-5.314941
-12.06268
-18.73358
-25.88191
-34.1745
-44.29045
-56.76427
-71.73717
-88.57335
-105.5685
-119.9549
-128.4709
-128.2616
-117.9838
-98.36278
-72.04662
-42.75303
-14.04224
11.63447
33.27395
50.97717
65.34286
76.8259
85.54624
91.45885
94.68478
95.73009
95.41468
94.56005
93.60627
92.42263
90.32807
86.48845
80.3242
71.76665
61.22246
49.27731
36.25636
22.01059
6.057138
-11.97585
-31.81331
-52.25659
-71.37041
-87.08054
-97.93947
-103.6181
-104.9797
-103.6831
-101.5499
-99.97293
-99.60269
-100.3477
-101.6886
-102.9832
-103.8123
-104.0813
-104.0722
-104.3842
-105.8431
-109.276
-115.1561
-123.1812
-131.9654
-139.0878
-141.5778
-136.7543
-123.1929
-101.2358
-73.00613
-41.76765
-11.03169
16.32449
38.53996
54.96603
65.78036
71.57362
73.11574
71.20917
66.73921
60.72069
54.27832
48.5078
44.27496
42.0736
41.9611
43.68196
46.84889
51.10329
56.10405
61.46953
66.63559
70.86641
73.41809
73.79819
72.02614
68.63023
64.45198
60.22151
56.2459
52.22794
47.35001
40.59476
31.18139
18.89355
4.230011
-11.67987
-27.44612
-41.80977
-54.01543
-63.99216
-72.2502
-79.66508
-87.04526
-94.73726
-102.3188
-108.5012
-111.3241
-108.6941
-99.01324
-81.80594
-58.00397
-29.81927
-0.1447449
28.1208
52.6842
72.11788
85.80659
93.7023
96.16512
93.83638
87.58892
78.56577
68.09057
57.5018
47.98018
40.37904
35.09392
32.01805
30.60324
30.03415
29.45052
28.17792
25.84373
22.32507
17.63799
11.83989
5.072052
-2.364761
-9.906784
-16.87578
-22.67157
-27.08595
-30.38309
-33.15382
-35.95319
-38.9792
-42.00359
-44.54573
-46.25613
-47.2431
-48.17833
-50.04936
-53.73119
-59.43047
-66.32896
-72.56831
-75.64575
-73.12451
-63.36749
-46.13831
-22.68573
4.637726
33.00632
59.82935
83.14679
101.7537
115.0253
122.7287
124.926
122.0201
114.8111
104.549
92.77676
81.1181
70.97383
63.29501
58.45938
56.31537
56.28207
57.57138
59.34341
60.84485
61.45273
60.66779
58.08194
53.31339
46.08655
36.2926
24.1232
10.11566
-4.846436
-19.6683
-33.33304
-45.0874
-54.68161
-62.35684
-68.81802
-75.01151
-81.93527
-90.40619
-100.7745
-112.6663
-124.7565
-134.8591
-140.2892
-138.6042
-128.4144
-109.9136
-84.9451
-56.47888
-27.79379
-1.636566
20.22556
37.01514
48.64081
55.3526
57.54175
55.79712
51.02234
44.49304
37.74252
32.2124
28.89905
28.14355
29.57416
32.35565
35.55359
38.4657
40.78186
42.56152
43.95056
44.91272
45.06372
43.73029
40.28534
34.42145
26.4024
16.98193
7.116516
-2.47052
-11.57538
-20.62183
-30.43628
-41.91052
-55.62305
-71.53992
-88.84808
-105.9113
-120.4244
-129.7391
-131.4248
-123.9363
-107.1443
-82.57263
-53.10944
-22.36432
6.176025
29.81317
46.94092
56.99939
60.15387
57.02002
48.55505
36.0119
20.99908
5.366272
-9.023926
-20.64856
-28.67169
-33.09271
-34.62549
-34.34558
-33.23486
-31.86316
-30.34686
-28.55011
-26.45654
-24.41479
-23.14697
-23.47736
-25.91742
-30.40533
-36.27338
-42.48383
-48.07147
-52.48926
-55.78601
-58.61517
-62.00537
-67.11755
-74.85468
-85.48718
-98.2655
-111.2509
-121.5101
-125.7765
-121.3647
-107.1
-83.79633
-54.06891
-21.57233
10.01422
37.80298
60.04108
76.01019
85.62622
89.17932
87.24396
80.77228
71.14105
60.00922
49.04968
39.6076
32.45996
27.75354
25.151
24.08325
23.94507
24.31519
24.9599
25.80438
26.7392
27.50146
27.54175
26.12292
22.59216
16.65295
8.579407
-0.8064575
-10.37506
-19.12506
-26.56152
-32.83606
-38.71082
-45.23145
-53.46442
-64.10254
-77.24902
-92.18567
-107.2082
-119.7123
-126.595
-125.072
-113.5765
-92.40207
-63.80225
-31.36902
0.9522705
29.88116
53.30832
70.31693
80.78854
85.0303
83.58444
77.33932
67.63007
56.18301
44.85693
35.16711
27.98633
23.43582
21.07788
20.22543
20.26993
20.84872
21.83783
23.20395
24.78989
26.1835
26.72723
25.59244
22.09595
15.95404
7.472382
-2.485138
-12.75424
-22.24765
-30.32541
-36.97369
-42.84402
-49.00183
-56.62524
-66.56931
-78.93063
-92.73056
-105.7293
-114.7937
-116.6044
-108.6978
-90.31778
-62.78058
-29.16193
6.614655
40.80928
70.64978
94.5119
111.7267
122.1597
125.9852
123.7056
116.3356
105.5204
93.33757
81.90994
72.84286
66.84453
63.67563
62.45203
62.09885
61.78699
61.16528
60.25008
59.17558
57.82661
55.74046
52.17813
46.42265
38.13698
27.606
15.66776
3.482147
-7.886795
-17.80415
-26.23846
-33.70834
-41.14647
-49.65984
-60.24364
-73.38702
-88.62514
-104.2443
-117.3571
-124.4877
-122.5933
-110.1195
-87.61842
-57.65147
-23.96371
9.584671
39.91653
65.09853
84.14165
96.6416
102.4589
101.7964
95.41107
84.80927
72.14018
59.72511
49.52064
42.61752
39.06995
38.09772
38.5202
39.25091
39.62366
39.4642
38.88681
37.97932
36.49284
33.84097
29.25918
22.22834
12.76533
1.527039
-10.40925
-21.9779
-32.48172
-41.86492
-50.63609
-59.65184
-69.84506
-81.95874
-96.24339
-112.1328
-127.9869
-141.0847
-148.1182
-146.1263
-133.5162
-110.8131
-80.57156
-46.61117
-12.8435
17.73071
43.46639
63.78113
78.61967
87.98446
91.85056
90.48475
84.79065
76.44264
67.5791
60.17665
55.44594
53.56493
53.80714
55.01075
56.15928
56.70838
56.58006
55.89546
54.56862
52.10804
47.69006
40.4943
30.16192
17.06128
2.252827
-12.82408
-26.83424
-38.97858
-49.14731
-57.86588
-66.01856
-74.53807
-84.15673
-95.19046
-107.3437
-119.5403
-129.8956
-135.9554
-135.2934
-126.2227
-108.4499
-83.30904
-53.47159
-22.24712
7.211355
32.45844
51.98138
65.10072
71.75492
72.38412
67.86972
59.53981
49.07323
38.21899
28.50755
20.99273
16.08505
13.67319
13.31411
14.49924
16.86134
20.20316
24.41339
29.23132
34.10746
38.18229
40.52692
40.49005
38.0391
33.81678
28.89897
24.31821
20.59971
17.50982
14.11077
9.095917
1.256302
-10.01657
-24.33875
-40.12195
-54.70938
-64.8974
-67.73424
-61.45268
-46.05515
-23.37721
3.505569
31.12587
56.47276
77.46504
92.94467
102.4509
105.9393
103.7061
96.43732
85.2885
71.78564
57.54242
43.96159
31.97043
21.94096
13.88504
7.596542
2.907318
-0.366272
-2.534729
-4.157822
-6.016586
-8.857605
-13.06883
-18.46349
-24.354
-29.86447
-34.42648
-37.99533
-41.0703
-44.4201
-48.76649
-54.64465
-62.32649
-71.76802
-82.40747
-92.84329
-100.8047
-103.442
-98.1523
-83.53452
-60.07556
-30.14758
2.617905
34.39333
62.08853
83.85365
99.04819
107.835
110.8033
108.7119
102.5029
93.33101
82.58569
71.73283
62.06894
54.48418
49.32141
46.42253
45.24431
45.08554
45.23511
45.03957
43.93913
41.49152
37.38895
31.57745
24.24257
15.85489
7.075592
-1.40535
-9.082977
-15.81728
-21.97417
-28.34908
-35.90363
-45.35536
-56.61899
-68.46672
-78.52194
-83.77356
-81.49071
-70.14757
-50.05826
-23.34637
6.687973
36.49777
63.21735
85.06714
101.3539
112.0892
117.5661
118.186
114.5029
107.4033
98.17538
88.35621
79.38287
72.21873
67.16164
63.87241
61.67557
59.83181
57.80696
55.27786
52.00107
47.68998
41.97145
34.52523
25.24538
14.39887
2.615156
-9.296094
-20.63041
-30.98377
-40.41619
-49.43885
-58.79418
-69.17432
-80.74601
-92.8401
-103.787
-111.1509
-112.334
-105.3445
-89.57738
-66.1078
-37.5106
-7.200089
21.44728
45.78606
64.24854
76.33034
82.30647
82.89957
79.11066
72.0591
62.98047
53.15208
43.76573
35.72832
29.57837
25.40398
22.97125
21.87819
21.63762
21.7393
21.63315
20.69185
18.26694
13.89409
7.419952
-0.8768616
-10.31354
-20.07532
-29.48325
-38.16644
-46.23596
-54.20764
-62.86908
-72.92172
-84.65631
-97.4917
-109.8065
-119.067
-122.3752
-117.4516
-103.3963
-81.20071
-53.52692
-23.9863
3.889221
27.38443
45.01215
56.38425
61.83951
62.15308
58.29263
51.40903
42.81607
33.89316
25.8548
19.55505
15.32333
12.98215
12.08081
12.04739
12.34592
12.47726
11.9827
10.37506
7.241394
2.387695
-4.088257
-11.72198
-19.8479
-27.79333
-35.12396
-41.79321
-48.19165
-55.04041
-63.17828
-73.20862
-85.10632
-97.87433
-109.4069
-116.8652
-117.4058
-109.1446
-91.953
-67.64069
-39.48962
-11.23871
13.91669
33.9986
48.26996
56.87451
60.32471
59.19672
54.15961
46.12341
36.40485
26.54388
17.98346
11.69135
7.969727
6.496643
6.575378
7.434021
8.334106
8.644165
7.774231
5.268982
0.8748169
-5.29071
-12.72406
-20.69452
-28.46307
-35.60413
-42.12109
-48.53076
-55.69305
-64.6001
-75.89966
-89.44989
-103.8907
-116.5823
-124.1613
-123.5182
-112.9227
-92.81293
-65.76593
-35.70428
-6.712219
18.0592
36.92456
49.54724
56.45819
58.5321
56.73157
52.06097
45.69202
38.9859
33.35773
30.06714
29.89331
32.9729
38.77679
46.28528
54.24207
61.4212
66.82898
69.78497
69.97778
67.37469
62.20483
54.83948
45.71631
35.20422
23.50134
10.55884
-3.91394
-20.29517
-38.69794
-58.55914
-78.29138
-95.24805
-106.126
-107.8083
-98.35217
-77.78918
-48.31543
-13.81085
21.18701
52.50659
77.16003
93.53381
101.2632
100.8101
93.13263
79.51129
61.42328
40.48328
18.29065
-3.68811
-24.26239
-42.54962
-58.00836
-70.46118
-80.06146
-87.27332
-92.70398
-96.94922
-100.3795
-103.0815
-104.8192
-105.252
-104.1496
-101.5388
-97.82251
-93.71039
-90.15771
-88.23822
-88.98053
-93.04517
-100.2673
-109.2894
-117.4068
-121.0186
-116.5823
-101.7958
-76.5321
-43.04114
-5.318848
32.10333
65.36871
92.05859
111.2619
123.1647
128.5345
128.3343
123.5951
115.4177
104.9849
93.46301
81.87173
70.92139
61.03027
52.37134
45.02002
38.99539
34.23541
30.49786
27.30789
23.96091
19.72101
14.0325
6.702972
-2.013153
-11.5928
-21.44165
-31.23041
-41.02686
-51.3671
-62.98462
-76.43784
-91.55252
-106.9901
-120.1327
-127.5446
-125.9185
-113.1836
-89.36932
-56.78809
-19.43326
18.17938
52.13306
79.8201
100.0605
112.7392
118.3584
117.723
111.8823
102.1759
90.2316
77.76328
66.29984
56.8504
49.81311
45.03995
42.07855
40.41101
39.63351
39.35001
39.07208
38.07285
35.45181
30.38831
22.45782
11.92584
-0.3102112
-12.98343
-24.95157
-35.64444
-45.24576
-54.62408
-65.04004
-77.68335
-93.16113
-111.0552
-129.5656
-145.5029
-154.8348
-153.7339
-139.8542
-113.3515
-77.06363
-35.79254
5.146835
41.38194
70.33052
91.30769
104.8245
111.8137
113.133
109.5565
102.0811
92.18402
81.76762
72.67401
66.15211
62.50012
61.08972
60.79991
60.59262
59.96455
59.03853
58.26903
57.9613
57.8452
57.07773
54.49393
49.14774
40.75507
29.84404
17.54613
5.190216
-6.237564
-16.40508
-25.71249
-35.1559
-45.952
-59.16589
-75.26375
-93.69067
-112.582
-128.775
-138.3597
-137.6616
-124.4779
-98.90894
-63.51993
-22.67392
18.75781
56.63286
88.32224
112.699
129.6643
139.5091
142.5982
139.4564
131.0299
118.8313
104.741
90.55815
77.4798
65.88123
55.37871
45.23415
34.78711
23.71829
12.08676
0.05374146
-12.31949
-25.28767
-39.28674
-54.70866
-71.64194
-89.69962
-108.1289
-126.026
-142.619
-157.3907
-170.0843
-180.6524
-189.171
-195.94
-201.5315
-206.8761
-212.9843
-220.482
-228.9763
-236.6637
-240.5365
-237.1621
-223.8169
-199.3453
-164.4953
-121.5456
-73.62527
-23.99126
24.35941
68.74168
106.7891
136.5388
156.7425
167.1758
168.7747
163.4995
153.8493
142.3753
131.1554
121.5425
114.0619
108.5613
104.5311
101.4759
99.14372
97.56924
96.87311
96.97098
97.43729
97.57234
96.6434
94.10107
89.77496
83.82471
76.66823
68.9064
61.29283
54.70993
49.96523
47.51329
47.07492
47.50526
47.01578
43.77713
36.78984
26.45825
14.71741
4.43071
-1.571762
-1.509506
4.844101
16.22353
30.42288
45.09976
58.26926
68.56993
75.17213
77.62755
75.78148
69.88728
60.67012
49.35884
37.56734
26.90797
18.65297
13.38559
10.98543
10.76585
11.90968
13.81245
16.26704
19.35063
23.1237
27.30147
31.14153
33.65529
33.99149
31.83507
27.56163
22.02872
16.20204
10.78168
5.966797
1.468002
-3.380844
-9.36647
-17.16124
-26.95833
-38.11794
-48.99113
-57.0412
-59.48235
-54.1633
-40.47512
-19.68396
5.359062
31.10918
54.28291
72.59006
84.87633
90.87894
90.87898
85.45064
75.44135
61.98678
46.53897
30.64897
15.72684
2.788361
-7.633305
-15.44457
-20.8829
-24.36066
-26.35672
-27.38654
-27.96375
-28.63478
-29.9519
-32.39696
-36.24371
-41.43967
-47.55852
-53.94043
-59.91532
-65.08952
-69.56145
-73.95298
-79.2392
-86.34828
-95.72871
-106.8523
-117.9839
-126.3974
-128.9383
-123.042
-107.5949
-83.49696
-53.48389
-21.358
9.068245
34.8738
54.458
67.4342
74.23929
75.713
72.87856
66.86086
58.95107
50.50452
42.80904
36.80083
32.94707
31.19092
31.11045
32.13254
33.72999
35.47376
36.99747
37.86098
37.50961
35.34814
30.92113
24.14322
15.41648
5.549683
-4.464661
-13.80778
-22.11308
-29.62929
-37.08571
-45.48383
-55.69094
-68.07014
-82.06232
-96.02912
-107.3525
-112.9784
-110.2676
-97.85896
-76.21088
-47.57216
-15.38388
16.66412
45.48827
69.07674
86.5269
97.70901
102.9511
102.8133
98.15981
90.16032
80.31126
70.22447
61.26155
54.27916
49.45697
46.45175
44.66566
43.56371
42.8157
42.25746
41.67909
40.63008
38.42778
34.32034
27.82037
18.96085
8.338898
-3.021652
-14.04132
-23.95586
-32.61301
-40.51459
-48.68248
-58.29091
-70.18979
-84.39877
-99.82716
-114.2626
-124.7624
-128.4089
-123.099
-108.2285
-84.94928
-55.8797
-24.45056
5.910126
32.41464
53.27414
67.65459
75.4996
77.27629
73.86412
66.49864
56.70053
46.13293
36.34329
28.48282
23.14975
20.35306
19.67838
20.50903
22.23151
24.29623
26.23376
27.56628
27.7688
26.29962
22.7294
16.89655
9.048645
-0.1731262
-9.885834
-19.25952
-27.80954
-35.61642
-43.3465
-52.01663
-62.58881
-75.4978
-90.18826
-104.9413
-117.0034
-123.2357
-120.9267
-108.6837
-86.95868
-58.00601
-25.33054
7.234192
36.32388
59.60989
75.87775
84.90347
87.15717
83.60608
75.6044
64.77774
52.8735
41.51544
31.96268
24.90915
20.47083
18.2634
17.6972
18.20883
19.36533
20.89752
22.50278
23.74362
23.99347
22.55331
18.88974
12.86884
4.888245
-4.225433
-13.47693
-22.08362
-29.77328
-36.9166
-44.40649
-53.3219
-64.44388
-77.75665
-92.1416
-105.4102
-114.7124
-117.2626
-111.0903
-95.68069
-72.19247
-43.21445
-12.14017
17.56735
43.05667
62.43536
74.81885
80.14954
79.0209
72.4653
61.9046
49.03156
35.60406
23.18686
12.89853
5.238129
0.1407471
-2.789063
-4.008606
-3.881866
-2.651428
-0.6056824
1.769165
3.785767
4.646484
3.718933
0.7789612
-3.905182
-9.645447
-15.62189
-21.16876
-26.02582
-30.45117
-35.15503
-41.07187
-49.02042
-59.27454
-71.20944
-83.07159
-92.22678
-95.65234
-90.84515
-76.70486
-53.93564
-25.00003
6.540344
36.96698
63.24832
83.47504
96.85239
103.4363
103.7829
98.82071
89.76224
78.09314
65.40085
53.15286
42.36038
33.47144
26.43478
20.94952
16.75302
13.74243
11.90588
11.15552
11.14566
11.25363
10.68378
8.733276
5.004974
-0.4399414
-7.134155
-14.38196
-21.50085
-28.12946
-34.35211
-40.75262
-48.21906
-57.5545
-69.01434
-81.81262
-94.00165
-102.692
-104.8456
-98.16254
-81.91406
-57.24811
-26.94824
5.371582
36.16827
62.64993
83.0976
96.7189
103.3962
103.4779
97.69385
87.21466
73.64948
58.86084
44.66257
32.47684
23.09949
16.67053
12.81146
10.89282
10.24695
10.27332
10.43988
